# q qerr I(q) I(q)err
6.111313073595031620e-02 3.154100855865873791e-03 1.120000000000000000e+02 4.127916408740736642e+01
6.800242608866982619e-02 2.110752812487300123e-03 1.370000000000000000e+02 2.277791327872975558e+01
7.478812129850326285e-02 1.894856213165734514e-03 1.511111111111111143e+02 3.242769735204082338e+01
8.081736842982174818e-02 1.577734731020807597e-03 2.396666666666666572e+02 6.055453617898373864e+01
8.706192866790804508e-02 2.018057842609979804e-03 6.006153846153846416e+02 2.318268074210859027e+02
9.311361532868518698e-02 1.734318039620741251e-03 1.816666666666666742e+03 5.116808358515860391e+02
9.924832822165428892e-02 1.939409616079583844e-03 3.616750000000000000e+03 8.840848994157743164e+02
1.056867454532435108e-01 2.068262530006435406e-03 4.183375000000000000e+03 8.199894054193626971e+02
1.120935416356093062e-01 1.699923986068800717e-03 3.034000000000000000e+03 1.249057644786660603e+03
1.177168722532570266e-01 1.903764278506084144e-03 1.699968750000000000e+03 1.183581468170600829e+03
1.242406998858587575e-01 2.007415885574503726e-03 8.466428571428571104e+02 6.581892658604191411e+02
1.307844605212421796e-01 1.948859987027574741e-03 3.336785714285714448e+02 1.765197060745713600e+02
1.372938405551752672e-01 1.976444694498947011e-03 1.873225806451612812e+02 5.362537217682519497e+01
1.433626874055373979e-01 1.479129257371093872e-03 1.512800000000000011e+02 4.050694755224095900e+01
1.497414395840910573e-01 2.132896554945924294e-03 1.316756756756756772e+02 3.235687143855928127e+01
1.562016171858009728e-01 1.470810848565314282e-03 1.220740740740740762e+02 3.073900039696580677e+01
1.620883487451751925e-01 1.817360580555445800e-03 1.171515151515151558e+02 2.780527197634658165e+01
1.684939590642719198e-01 1.975568076388520972e-03 1.119729729729729684e+02 2.785044322319249943e+01
1.749358117034872373e-01 1.810730169671130639e-03 1.099714285714285751e+02 2.842782482867438532e+01
1.813634234827302405e-01 1.982290824745188643e-03 1.101463414634146289e+02 2.485335934140980285e+01
1.877608813777307539e-01 1.710969833005861022e-03 1.135945945945945965e+02 2.665622665127510160e+01
1.936838392192468117e-01 1.708352888559126238e-03 1.268421052631578902e+02 2.761478186199048324e+01
1.998200724089964908e-01 1.901042836663710675e-03 1.851395348837209269e+02 5.435548416429063678e+01
2.064988844748374130e-01 2.083185659227047067e-03 3.895833333333333144e+02 1.402535835846391024e+02
2.131062600015138364e-01 1.923054290541973939e-03 7.257021276595744439e+02 1.531805728970969938e+02
2.193208008558340527e-01 1.649587748772136844e-03 8.241395348837208985e+02 1.775046217757659122e+02
2.255197753110727010e-01 1.943898002345461392e-03 5.683137254901961342e+02 1.968489663953922104e+02
2.319084130262620835e-01 1.853433278599466881e-03 2.653399999999999750e+02 1.095896491462583384e+02
2.380456302514551703e-01 1.717913041466973250e-03 1.399375000000000000e+02 4.358677886316750971e+01
2.441826744061198484e-01 1.910984005326162374e-03 1.076909090909090878e+02 2.689286365752965224e+01
2.508567628905887248e-01 1.865639566994751813e-03 8.824193548387096087e+01 3.426500446077879758e+01
2.571616352083493928e-01 2.042758540577210586e-03 8.141463414634147000e+01 3.351179571601376495e+01
2.636090936505812721e-01 1.759536909171210452e-03 8.000000000000000000e+01 3.074106353093508304e+01
2.696276322290375727e-01 1.767913466712890637e-03 8.067499999999999716e+01 2.860686652711197908e+01
2.756934411426098519e-01 1.847457432374286813e-03 8.289285714285713880e+01 2.700196830819943727e+01
2.820483295007140123e-01 1.942127748479487680e-03 8.443820224719101475e+01 2.643464451248020097e+01
2.885873542857223528e-01 1.999902870285049771e-03 8.723157894736841911e+01 2.580251657292065559e+01
2.950059364807982032e-01 1.753155416080761590e-03 9.027906976744185386e+01 2.481737514823520385e+01
3.012776628394395750e-01 1.916275679195857595e-03 9.978947368421052033e+01 2.219662822838508021e+01
3.076468654533095481e-01 1.858480647863890167e-03 1.380322580645161281e+02 2.482128281277442738e+01
3.139397285054469910e-01 1.849733180513128640e-03 2.655851063829787222e+02 6.108334071868090120e+01
3.202097007249891103e-01 1.889977811219999311e-03 4.717755102040816269e+02 6.427943117983386401e+01
3.264390569218261762e-01 1.757358001834326191e-03 5.402580645161290249e+02 5.725739511951582728e+01
3.326951465344144543e-01 1.930481388006281569e-03 3.857115384615384528e+02 1.035360889186948157e+02
3.390239669727912464e-01 1.785238221274862988e-03 1.967551020408163254e+02 6.512193253781242674e+01
3.452290355408559885e-01 1.822729964848564038e-03 1.186862745098039227e+02 3.130755829602580320e+01
3.515217579766085620e-01 1.894166946962649433e-03 9.713333333333333997e+01 2.143412203244134417e+01
3.581115149106128270e-01 1.984833837990382030e-03 9.170796460176991616e+01 1.932971274124216521e+01
3.646365217867122976e-01 1.807385512883236643e-03 9.057943925233644222e+01 1.878621840396744602e+01
3.707522342694583029e-01 1.646676631311451595e-03 8.901999999999999602e+01 1.878695824235524725e+01
3.768404479121448269e-01 1.835047814059704218e-03 8.934234234234234862e+01 1.766003615162995288e+01
3.831651369708888866e-01 1.834489868729198949e-03 8.868468468468468302e+01 1.731443407869004858e+01
3.894643253735652899e-01 1.853753096359237081e-03 8.872566371681415376e+01 1.671394448260474164e+01
3.958807651630259494e-01 1.912159574900255954e-03 8.886666666666666003e+01 1.618093871744707357e+01
4.022473572087105209e-01 1.746533598099251966e-03 8.987387387387387605e+01 1.575891228128585553e+01
4.083991683103055381e-01 1.862831917861469243e-03 9.273109243697479087e+01 1.483356574437200059e+01
4.147868792651558945e-01 1.850918924272050396e-03 1.041570247933884303e+02 1.335781368317330298e+01
4.211381020132339281e-01 1.813003092898375071e-03 1.453719008264462786e+02 1.896705198117247804e+01
4.273404438934948479e-01 1.765577699919095717e-03 2.129663865546218346e+02 2.058163330951091297e+01
4.337195733954657406e-01 1.911235613422362228e-03 2.412615384615384642e+02 2.144982862236884813e+01
4.400834723796714920e-01 1.795304431444431784e-03 1.873306451612903345e+02 3.630235642773118343e+01
4.463380503116383125e-01 1.781136916513354146e-03 1.242539682539682531e+02 2.671247954357826515e+01
4.525475293404462862e-01 1.782735370135076804e-03 9.702362204724408912e+01 1.661702778029886929e+01
4.588781844142776345e-01 1.863542184770878652e-03 8.951492537313433218e+01 1.390237418643317113e+01
4.652813857520213814e-01 1.809454061223974295e-03 8.745864661654135830e+01 1.301661205906886920e+01
4.715886271752884884e-01 1.786725641485754782e-03 8.557462686567164667e+01 1.257702488317516121e+01
4.778700308571910971e-01 1.749120838384908864e-03 8.500751879699248548e+01 1.168251698083588330e+01
4.841075358786299798e-01 1.812598873705853009e-03 8.468115942028985899e+01 1.121614137514305298e+01
4.904685449060671165e-01 1.813034819841214708e-03 8.382142857142856940e+01 1.121808397915015121e+01
4.967988078032400945e-01 1.775169993053363985e-03 8.395744680851063890e+01 1.076496225041708144e+01
5.030461340587593089e-01 1.710738770771227935e-03 8.376811594202898448e+01 1.052545149504492272e+01
5.093789740337634209e-01 1.844995629980458740e-03 8.426174496644294720e+01 9.985578087426979721e+00
5.157895609665918979e-01 1.772173611217854692e-03 8.547260273972602818e+01 9.198668386990926038e+00
5.220653538623039047e-01 1.710912446064493482e-03 9.427272727272726627e+01 7.953816150383439698e+00
5.282420832211931483e-01 1.776221308977217429e-03 1.247027027027027088e+02 1.394768740436477472e+01
5.345849814872509764e-01 1.797460663252185451e-03 1.798421052631578902e+02 1.717863817123704706e+01
5.409400198384390901e-01 1.769240412124692928e-03 2.046601307189542354e+02 1.549467269364010846e+01
5.471612929737256215e-01 1.671871176479489780e-03 1.645202702702702595e+02 2.651127494200159873e+01
5.535187503546902255e-01 1.843477994232445120e-03 1.124691358024691397e+02 1.970066346172610849e+01
5.599303633336802921e-01 1.774845713676194252e-03 8.777707006369426779e+01 1.110889198046831794e+01
5.661980099607780703e-01 1.715649351238413218e-03 8.131818181818181301e+01 8.319405913763869620e+00
5.724333289920446877e-01 1.764199560704661452e-03 7.918125000000000568e+01 7.603833326027076289e+00
5.786575496797814466e-01 1.687338640378493104e-03 7.824675324675324362e+01 7.426204100132113517e+00
5.849918082512260975e-01 1.882166412490617838e-03 7.811046511627907307e+01 7.272523804555837579e+00
5.913559560974818163e-01 1.673563701773732749e-03 7.743949044585987451e+01 7.305052195404859283e+00
5.976003341774964728e-01 1.789272139650604403e-03 7.703550295857988317e+01 7.281663151757527430e+00
6.039710484280985670e-01 1.760471037718898532e-03 7.639880952380951840e+01 7.125857747629805949e+00
6.103455122609070527e-01 1.778153705054047679e-03 7.591228070175438347e+01 6.803678266966925570e+00
6.165941547084902163e-01 1.709282904712068618e-03 7.523353293413173049e+01 6.552014705235538194e+00
6.227886440901039267e-01 1.708031916550016484e-03 7.547023809523810201e+01 6.399089141177415563e+00
6.292222757675741684e-01 1.895555695838723603e-03 7.864705882352940591e+01 5.900853260686309554e+00
6.355837393651907474e-01 1.609918394456906487e-03 8.916969696969697168e+01 6.305561845929152476e+00
6.417201133152361514e-01 1.735489606861494215e-03 1.087022471910112387e+02 7.412380073992292040e+00
6.480234646877054416e-01 1.746502386866512820e-03 1.180730337078651644e+02 7.117837853245027269e+00
6.543745591304535036e-01 1.808595843625667669e-03 1.042880434782608745e+02 1.059378964379665611e+01
6.607410482875138991e-01 1.776914150084337417e-03 8.520108695652173481e+01 8.720528276518004773e+00
6.669765730033264672e-01 1.670208017253243388e-03 7.581250000000000000e+01 6.357987549674676053e+00
6.731673103258457580e-01 1.796482171393593615e-03 7.235106382978723616e+01 5.443706521952486277e+00
6.795850853652600776e-01 1.822834825668488831e-03 7.072251308900523270e+01 5.120033390560236874e+00
6.858902177354958551e-01 1.747430487391250960e-03 7.041397849462364888e+01 4.862373438333354336e+00
6.921278880332987216e-01 1.765781770802452586e-03 7.007407407407407618e+01 4.704516032009462556e+00
6.985070946107704293e-01 1.847715388967816497e-03 6.982323232323231821e+01 4.382377683379149680e+00
7.048037128132643714e-01 1.757666077632949074e-03 6.940211640211640542e+01 4.340556415848104699e+00
7.109847861020758275e-01 1.767854622430342420e-03 6.915104166666667140e+01 4.946469086491000589e+00
7.172345948602801835e-01 1.822657136245004524e-03 6.902525252525252597e+01 4.894801917092321375e+00
7.236608500653414211e-01 1.906739358311473767e-03 6.887317073170731874e+01 4.588200991704010079e+00
7.299519259881649402e-01 1.814756391122580772e-03 6.905102040816326792e+01 4.727546725573664510e+00
7.362298620906445601e-01 1.872001608046580190e-03 7.117156862745098067e+01 4.938924362268485524e+00
7.427109241448597299e-01 1.961252361706546793e-03 8.064018691588785259e+01 6.103444170715682127e+00
7.489749171607754663e-01 1.795506848231544564e-03 9.840512820512820724e+01 6.346167832152422861e+00
7.553119902396251417e-01 1.968290517240121971e-03 1.077899543378995446e+02 5.836481024411573237e+00
7.617428847945948434e-01 1.878647625832918257e-03 9.457004830917874472e+01 9.855306902582354311e+00
7.679897535333021219e-01 1.889655825210407886e-03 7.729186602870812806e+01 7.281256016537343889e+00
7.742716946001383382e-01 1.890740870187222538e-03 6.836150234741784004e+01 4.621609693356723447e+00
7.806130493972306406e-01 1.874127862848933099e-03 6.582547169811320487e+01 3.665473742534377077e+00
7.869955317179381238e-01 1.962138593108325030e-03 6.500892857142856940e+01 3.455708961417383929e+00
7.933337815560531636e-01 1.823456314192357453e-03 6.417142857142857792e+01 3.676178139628947683e+00
7.995722808394026826e-01 1.873920736445982161e-03 6.358823529411764497e+01 3.414844919435665815e+00
8.059029702364099990e-01 1.855844282913126459e-03 6.306392694063926996e+01 3.011521975817150754e+00
8.122482529694946551e-01 1.899897789708842157e-03 6.279295154185022199e+01 3.137145419533295065e+00
8.185971333973350861e-01 1.831057107996742058e-03 6.301793721973093909e+01 3.319291477385222233e+00
8.248840800988579414e-01 1.805078930334647752e-03 6.374439461883407887e+01 3.412043354944311435e+00
8.311527541867054225e-01 1.843524136775542745e-03 6.405676855895195843e+01 3.630486378143980009e+00
8.375116084758876811e-01 1.829773299230467044e-03 6.370000000000000284e+01 3.690174969340588529e+00
8.438261475186588090e-01 1.817550564165925373e-03 6.359051724137930961e+01 3.594589837503171292e+00
8.500843452560248314e-01 1.755513946144033992e-03 6.598230088495574819e+01 3.554824407513148099e+00
8.563647400134730692e-01 1.844487251387733453e-03 7.178008298755186445e+01 3.633137300531553038e+00
8.626696591174244366e-01 1.710203360544058351e-03 7.503947368421052033e+01 3.713231563296210069e+00
8.689830853488446083e-01 1.844123492424595270e-03 7.082113821138212018e+01 4.341589018005858058e+00
8.753179752476163422e-01 1.741457950302257533e-03 6.461702127659575012e+01 3.894430795090032316e+00
8.815756228481118617e-01 1.752464905610253906e-03 6.138589211618257480e+01 3.312554971162886108e+00
8.877944678552249780e-01 1.716242394594354789e-03 6.023628691983122252e+01 2.930275702678853733e+00
8.941407927930166144e-01 1.839522330085644050e-03 5.994466403162055457e+01 2.818045997314710505e+00
9.005003621585947471e-01 1.752218829319661820e-03 5.968163265306122156e+01 2.936643217363855918e+00
9.067627482844141662e-01 1.720498064613873055e-03 5.935245901639343913e+01 3.299926094308132996e+00
9.130278025298368405e-01 1.789374596252915357e-03 5.879761904761905100e+01 3.125342006984162868e+00
9.193563827426239898e-01 1.786117629316656989e-03 5.830952380952381020e+01 2.727117399777521545e+00
9.256709965929463824e-01 1.773964252230773864e-03 5.852941176470588402e+01 2.738296897013503539e+00
9.319487846442510159e-01 1.740175819907428248e-03 5.886399999999999721e+01 2.928644737758404837e+00
9.382375230166524194e-01 1.835219923763222079e-03 5.924427480916030220e+01 2.904071035016753566e+00
9.445114335627492475e-01 1.754301698834087597e-03 5.995256916996047636e+01 2.809767969834211510e+00
9.507739483173833772e-01 1.796477233495237351e-03 6.136398467432950099e+01 2.790092927916568932e+00
9.571000001339345920e-01 1.844157663989784944e-03 6.568679245283018986e+01 3.445911203554712365e+00
9.634651872700409347e-01 1.860525514413665987e-03 7.416541353383458102e+01 4.297615713359965284e+00
9.697902983397413967e-01 1.869026222830578836e-03 8.085714285714286120e+01 3.121251780062530123e+00
9.761731987705594138e-01 1.898719003246270758e-03 8.002952029520295696e+01 3.331496432454895906e+00
9.824546988499620603e-01 1.850375251942234242e-03 7.675849056603773590e+01 3.127058951476490822e+00
9.887603507672997338e-01 1.885371791598095068e-03 7.756985294117646390e+01 3.214307769600831310e+00
9.951547945742836854e-01 1.923480157877882840e-03 8.075800711743772808e+01 3.650331477710540007e+00
1.001497743307979915e+00 1.816985016266823736e-03 8.241947565543071619e+01 3.893448930922919438e+00
1.007730073445106012e+00 1.872875193246743668e-03 7.967625899280575652e+01 4.706699483716716870e+00
1.014110590476311025e+00 1.881534321868284657e-03 7.355319148936170848e+01 4.577641979914202075e+00
1.020442888611849064e+00 1.823625195420996601e-03 6.722580645161289681e+01 3.662265197924411630e+00
1.026691701700078063e+00 1.782759485576686145e-03 6.334057971014492949e+01 2.983849089267690768e+00
1.033057845114525142e+00 1.884320384582664851e-03 6.107823129251701033e+01 2.694337039078777085e+00
1.039437792018165441e+00 1.793463056649077922e-03 5.968904593639575751e+01 2.695582755155413235e+00
1.045681248368910410e+00 1.745618337461533540e-03 5.842198581560283799e+01 2.614204022815314499e+00
1.051944871571292683e+00 1.801987856022948175e-03 5.768620689655172384e+01 2.421264299609037440e+00
1.058324809813473877e+00 1.829265674919061668e-03 5.739393939393939092e+01 2.391274141796025265e+00
1.064596602572098316e+00 1.714864743882408334e-03 5.833450704225352013e+01 2.572577718907146149e+00
1.070868750588993112e+00 1.792957436204007347e-03 5.982491582491582705e+01 2.755295201157890173e+00
1.077195490251847465e+00 1.798916779777443367e-03 6.043143812709030271e+01 2.891445067962550297e+00
1.083505800573759448e+00 1.740543057611223946e-03 5.904436860068259563e+01 2.855727480516208505e+00
1.089676915900379850e+00 1.748165881083384946e-03 5.735374149659863718e+01 2.646114225820494603e+00
1.096052400832523421e+00 1.863573573199493825e-03 5.644089456869009780e+01 2.750310725454087279e+00
1.102364289960501065e+00 1.744372504095847640e-03 5.618644067796610386e+01 2.668670845062679930e+00
1.108625070827478076e+00 1.829094711995288541e-03 5.596416938110748873e+01 2.719557609510035778e+00
1.114924075445366869e+00 1.842999932655674591e-03 5.429870129870129603e+01 5.806629155436081824e+00
1.121282665432693726e+00 1.762017027877181303e-03 5.566030534351145320e+01 3.565326811201446233e+00
1.127553932619258736e+00 1.851826979229859085e-03 5.606691449814126571e+01 3.317668401012459967e+00
1.133905639228342421e+00 1.803927404845938115e-03 5.618431372549019898e+01 3.455329256254353165e+00
1.140144523104706709e+00 1.820967272376473748e-03 5.597637795275590378e+01 3.549334331328676040e+00
1.146455214771981312e+00 1.831860927088285957e-03 5.606772908366534125e+01 3.230776018839713437e+00
1.152869066430118439e+00 1.902391342003174283e-03 5.631274131274130923e+01 3.129126276574938803e+00
1.159252377890596986e+00 1.791659613503928782e-03 5.668049792531120090e+01 3.012476709625210081e+00
1.165575291556828930e+00 1.872439892399787795e-03 5.710358565737051606e+01 3.058793318939836414e+00
1.171828433925186763e+00 1.747387590499659572e-03 5.864502164502164305e+01 3.278908590285698033e+00
1.178029580193284076e+00 1.845903894892485285e-03 6.134979423868312409e+01 3.215585300196846408e+00
1.184400904434957269e+00 1.829516060217846983e-03 6.368619246861924665e+01 3.268430603404031132e+00
1.190737654720273042e+00 1.816225366119703435e-03 6.456962025316455822e+01 3.393137083311436708e+00
1.196977477342464180e+00 1.780548390738201196e-03 6.444978165938864834e+01 2.905440064483734819e+00
1.203312963818603976e+00 1.874247930763579166e-03 6.408677685950412695e+01 2.864187870997913166e+00
1.209645773529357093e+00 1.750259837788138012e-03 6.288053097345132869e+01 3.130392598336451115e+00
1.215952225700388523e+00 1.837678281197498587e-03 6.130932203389830448e+01 3.071002164561739356e+00
1.222254898926581568e+00 1.775628514659025698e-03 5.703370786516853741e+01 6.815857896513331404e+00
1.228537298751265050e+00 1.780223345631782141e-03 5.747101449275362484e+01 3.993762859376807306e+00
1.234759587745337228e+00 1.795376270296014523e-03 5.702508960573477026e+01 3.630737685031937279e+00
1.241110555825225781e+00 1.895169703334604900e-03 5.693959731543624514e+01 3.330685253572714721e+00
1.247523323486311897e+00 1.874537877840588536e-03 5.660472972972972627e+01 3.226452170492124072e+00
1.253854431820907944e+00 1.857283623330970761e-03 5.631543624161074035e+01 3.422519397354692128e+00
1.260138295168494293e+00 1.856490137450314505e-03 5.602657807308970206e+01 3.290888434652583516e+00
1.266501421045549414e+00 1.881588491645209797e-03 5.620900321543408040e+01 3.108759429481958492e+00
1.272807251993681055e+00 1.824447191781883651e-03 5.651147540983606632e+01 3.160577510765827380e+00
1.279100636071537789e+00 1.831925956271344968e-03 5.663694267515923286e+01 3.057437630615885915e+00
1.285385940199903265e+00 1.796864974607813087e-03 5.688141025641025550e+01 3.217287831818582688e+00
1.291734086560349049e+00 1.833790085687247952e-03 5.727300613496932868e+01 3.301782127139873957e+00
1.297999116585571544e+00 1.712347548001254965e-03 5.743689320388349273e+01 3.491763915976827892e+00
1.304332283077917598e+00 1.862331657852500611e-03 5.771681415929203496e+01 3.332388202344507722e+00
1.310629912671008812e+00 1.689758514739712848e-03 5.836538461538461320e+01 2.953003435477315808e+00
1.316859893871710430e+00 1.807323329610554348e-03 5.863880597014925655e+01 2.893087143343546330e+00
1.323169508333509325e+00 1.772103529485381237e-03 5.818844984802431952e+01 3.029994211511779056e+00
1.329416719622044551e+00 1.761213072716576004e-03 5.699697885196374614e+01 2.845462788807683996e+00
1.335676763851219473e+00 1.808340606324402439e-03 5.610714285714285410e+01 2.864109809347400670e+00
1.342102166253144047e+00 1.916040745002256648e-03 5.556338028169014365e+01 3.163563387524194415e+00
1.348432554966731090e+00 1.804515701739407276e-03 5.663141993957703590e+01 3.085716363510454752e+00
1.354697325729501189e+00 1.895450207138361931e-03 6.247875354107648604e+01 4.597871599327992165e+00
1.361035554581970564e+00 1.836151892644552735e-03 7.622093023255814614e+01 6.744815026804558578e+00
1.367445372286436589e+00 1.911657172750392099e-03 9.123013698630137469e+01 5.789905866728816797e+00
1.373833054624600258e+00 1.794265400870382644e-03 9.688405797101449934e+01 4.731714269985798360e+00
1.380048052911932777e+00 1.791287036868802413e-03 9.600284900284900402e+01 4.526276558848286058e+00
1.386332670155489666e+00 1.806335848089170130e-03 9.059831460674156745e+01 4.976957382251670836e+00
1.392624520144640332e+00 1.796075039907524609e-03 7.798333333333333428e+01 5.884037571952455359e+00
1.398923000198597277e+00 1.771229759338340285e-03 6.486797752808988093e+01 4.208626414392494297e+00
1.405184482923453881e+00 1.808998902686751115e-03 5.779347826086956275e+01 3.193955664732960553e+00
1.411475199677901360e+00 1.734371386327675756e-03 5.462640449438202239e+01 2.892230099790221942e+00
1.417706081410672780e+00 1.817237095201347432e-03 5.315322580645161565e+01 2.469937178056341498e+00
1.424046144262549829e+00 1.816956160244514703e-03 5.259891598915989164e+01 2.497282253060190360e+00
1.430457268966005335e+00 1.925855730949348329e-03 5.260668380462725224e+01 2.555013875126500800e+00
1.436865665354877475e+00 1.843763745384080412e-03 5.249462365591397628e+01 2.613799129561841017e+00
1.443084111958556903e+00 1.831535442318516687e-03 5.208602150537634401e+01 2.768550984174090068e+00
1.449466238371406979e+00 1.910439897345804971e-03 5.178734177215189760e+01 2.654789820107061882e+00
1.455780432464144347e+00 1.769262236301017126e-03 5.260000000000000142e+01 2.776055922795232611e+00
1.462109939136078340e+00 1.873282905934200038e-03 5.459899749373433764e+01 3.098402287157160817e+00
1.468414112563870999e+00 1.734923018383166060e-03 5.607466666666666555e+01 2.969167784638202079e+00
1.474680891373796765e+00 1.804015195942032307e-03 5.622081218274111336e+01 2.754788241322476683e+00
1.480924591063775386e+00 1.742163032935032654e-03 5.633159268929503583e+01 3.097720597660782005e+00
1.487138550370334267e+00 1.742602934721402272e-03 5.767352185089974625e+01 3.451913815479628944e+00
1.493462591150057195e+00 1.833511633313982111e-03 5.915841584158415856e+01 3.667835780379509636e+00
1.499809278721849770e+00 1.805357266360340307e-03 5.952896725440805881e+01 3.618607746738716990e+00
1.506175762378094918e+00 1.888906516140883814e-03 5.863569682151589291e+01 3.470925175321861289e+00
1.512543466733061504e+00 1.879653113941155348e-03 5.639215686274509665e+01 3.434844182192261286e+00
1.518927121842702510e+00 1.865813122140227640e-03 5.441176470588235503e+01 3.234023814785857098e+00
1.525176469146275027e+00 1.826629940430822378e-03 5.329032258064516014e+01 2.981465733030257859e+00
1.531416651941075235e+00 1.798854978931840659e-03 5.277227722772277474e+01 3.008988918610753682e+00
1.537728221615372926e+00 1.856986876758172280e-03 5.333569739952718436e+01 2.968577226319195628e+00
1.544096010846849332e+00 1.769518617434322075e-03 5.476885644768856309e+01 3.265915631542784414e+00
1.550405005344789089e+00 1.809055686031393537e-03 5.634751773049645607e+01 3.211335718261827399e+00
1.556696834359960313e+00 1.740139413919524446e-03 5.646359223300970598e+01 3.300822740822426216e+00
1.562969221032702194e+00 1.804120915253569534e-03 5.503301886792452535e+01 3.370435681874563549e+00
1.569251838380229191e+00 1.803338776033149233e-03 5.292124105011933466e+01 3.273281653342698938e+00
1.575556094315494926e+00 1.863019847936644557e-03 5.194638694638694432e+01 3.342079418688839176e+00
1.581892448177514066e+00 1.865480693804838323e-03 5.096064814814814525e+01 3.674011477868052378e+00
1.588269483401412163e+00 1.861295980786164313e-03 4.939861751152074021e+01 3.482490034264587475e+00
1.594574325321363339e+00 1.830133252637398044e-03 4.819212962962962621e+01 3.386809028329742510e+00
1.600916934751582588e+00 1.832077894544300927e-03 5.021412300683370944e+01 3.788270640113197807e+00
1.607201343968552854e+00 1.780442356845074459e-03 5.409953703703703809e+01 4.144613707942613523e+00
1.613445462524496721e+00 1.775524639999344866e-03 5.753669724770642091e+01 4.043328841710987831e+00
1.619730849749851931e+00 1.787630240083115185e-03 6.063656884875846487e+01 4.363072041313892591e+00
1.625979803600224649e+00 1.755895091839796123e-03 6.578390804597701447e+01 4.797861416397986467e+00
1.632226613292544926e+00 1.821174808670054370e-03 7.102684563758388947e+01 4.694397798334523308e+00
1.638606704061473573e+00 1.894452323361247963e-03 7.035357917570499353e+01 4.694511535219354492e+00
1.645050487946952522e+00 1.887301666918968484e-03 6.139782608695652044e+01 5.192301084124856025e+00
1.651415996904310735e+00 1.851783837096881687e-03 5.138815789473684248e+01 4.258552851791916893e+00
1.657788871265904573e+00 1.852242853945953917e-03 4.595032397408207459e+01 3.590185738945161908e+00
1.664006124760511351e+00 1.741113674427757210e-03 4.563945578231292188e+01 3.776437548264394817e+00
1.670281873961185770e+00 1.842366346193471905e-03 4.791331923890063393e+01 4.103667057045699451e+00
1.676541801276667298e+00 1.721555322686186195e-03 4.970403587443946236e+01 3.747237179941566243e+00
1.682793682471841024e+00 1.824670227224382997e-03 4.827215189873417955e+01 3.661339981171620295e+00
1.689107465299970467e+00 1.791603935857043455e-03 4.521691973969631562e+01 3.364844710495343616e+00
1.695415952935033443e+00 1.877357617877282179e-03 4.265553235908141971e+01 3.219466615014533684e+00
1.701806617780016628e+00 1.875253898477295287e-03 4.096450939457202622e+01 3.428165656510895776e+00
1.708145235544118012e+00 1.851238026496159058e-03 3.997263157894737162e+01 3.387474402188862310e+00
1.714469347376187613e+00 1.845626368464784459e-03 3.984265010351966652e+01 3.413492913048860711e+00
1.720739519194126599e+00 1.771881702320935673e-03 4.026495726495726757e+01 3.558248589758396196e+00
1.726990948287859817e+00 1.820993782645452704e-03 4.044693877551020478e+01 3.819276389135743965e+00
1.733361150263370787e+00 1.784216608021570085e-03 4.076859504132231393e+01 3.898201333394754275e+00
1.739571674833123582e+00 1.760427731239605715e-03 4.092872117400419540e+01 6.314355087417900414e+00
1.745887440247851030e+00 1.853392121839796862e-03 4.056312625250500759e+01 8.975286113558592405e+00
1.752250177420427102e+00 1.860925844240075020e-03 3.975910931174089313e+01 6.085772403215774951e+00
1.758607387389414800e+00 1.864192030273802104e-03 3.929399999999999693e+01 3.698939307423142253e+00
1.764972322429467777e+00 1.851098948525789619e-03 3.977799999999999869e+01 3.553628005292619907e+00
1.771273520234028620e+00 1.808016239517707931e-03 4.048588709677419217e+01 3.695132777519146039e+00
1.777586992161852564e+00 1.807004964737956481e-03 4.102772277227722952e+01 3.859574594103134082e+00
1.783840233931820451e+00 1.746107465683986813e-03 4.178818737270875516e+01 3.993824069846442892e+00
1.790071520275328565e+00 1.795583184790444783e-03 4.357480314960629642e+01 4.021040205908001042e+00
1.796393698957722052e+00 1.819993601147859141e-03 4.710079051383399218e+01 4.398832147005183657e+00
1.802712928873270393e+00 1.883216042231023422e-03 5.252490421455938474e+01 4.789176244252856485e+00
1.809114577024696358e+00 1.850157529878445435e-03 5.764147286821705762e+01 4.776459140970962025e+00
1.815345782948464493e+00 1.803540499391122600e-03 5.890909090909090651e+01 4.581007205975573982e+00
1.821700705453981772e+00 1.863872113208649628e-03 5.477238805970149116e+01 4.780441287345746026e+00
1.828034416566336029e+00 1.759461126105644731e-03 4.849409448818897772e+01 4.532358804701223320e+00
1.834289862490237510e+00 1.817049905439401892e-03 4.381167608286252602e+01 4.065142644031812580e+00
1.840620947190598100e+00 1.780340576699249600e-03 4.147115384615384670e+01 3.782306597205769449e+00
1.846876290479544158e+00 1.833628160635640113e-03 4.066162570888468508e+01 3.876908671367349513e+00
1.853225331533147280e+00 1.864396810776891523e-03 4.047407407407407476e+01 3.889946946013318918e+00
1.859586416204100923e+00 1.843230203276794224e-03 4.048785046728971793e+01 4.008439433095350779e+00
1.865884580336470755e+00 1.827085395033201023e-03 4.052700186219739464e+01 4.082114660584728938e+00
1.872200528994375501e+00 1.799198018262535481e-03 4.097407407407407476e+01 4.155454049067256683e+00
1.878453452628845000e+00 1.760356359008985331e-03 4.152165725047080969e+01 4.179589586640014787e+00
1.884712324747962020e+00 1.805687576808031941e-03 4.191423357664233862e+01 4.260856295590913945e+00
1.891113706724730337e+00 1.861939656346446982e-03 4.238129496402877550e+01 4.297721238794435905e+00
1.897400945427566432e+00 1.833350088909791505e-03 4.297242647058823195e+01 4.293368437864677922e+00
1.903772875545957088e+00 1.875180743362649160e-03 4.429401408450704025e+01 4.543644699066912374e+00
1.910018917854334752e+00 1.739883276586547947e-03 4.667296786389413654e+01 4.699092219842192719e+00
1.916236012056648175e+00 1.833205283437960029e-03 4.904561403508771633e+01 4.559905287013232389e+00
1.922638163561010805e+00 1.793373418488206777e-03 5.088392857142856940e+01 4.489340407667742561e+00
1.928888348891847349e+00 1.792288115248428593e-03 5.166546762589928221e+01 4.803970638519878378e+00
1.935240631371640818e+00 1.865766417879262265e-03 5.141003460207612363e+01 4.862331704937550292e+00
1.941608872090050619e+00 1.856644915843207438e-03 5.069771528998242616e+01 5.083953311593117697e+00
1.947917338414854704e+00 1.837601359788319485e-03 4.984938704028021306e+01 4.714789614363874115e+00
1.954236834815996637e+00 1.805754229573221887e-03 4.829895104895104652e+01 4.740131139506307711e+00
1.960488135501994522e+00 1.772905664188001006e-03 4.627433628318583914e+01 4.810157433515295011e+00
1.966755922696415082e+00 1.810201296061439468e-03 4.411015490533562655e+01 4.765600388036914659e+00
1.973091583736556354e+00 1.814240900008777741e-03 4.210689655172414092e+01 4.664147797080226532e+00
1.979420480567132490e+00 1.865397302840512408e-03 4.042444821731749016e+01 4.533278644619019637e+00
1.985762243830389018e+00 1.849873766110382307e-03 3.892881355932203036e+01 4.503471162741634615e+00
1.992143605840229093e+00 1.840662096304069391e-03 3.836013400335008328e+01 4.810640656200300569e+00
1.998372952698491245e+00 1.738412627792555948e-03 3.859753954305799795e+01 5.917629390295118696e+00
2.004614638405731508e+00 1.821010887715033720e-03 3.856622516556291203e+01 5.430920369255148650e+00
2.010981699228176822e+00 1.807963355431743604e-03 3.847474747474747403e+01 5.094493620748292706e+00
2.017216781415232862e+00 1.822968187424302972e-03 3.858516020236087485e+01 4.445763576414583085e+00
2.023555507756473748e+00 1.866836436713831520e-03 3.866016260162601981e+01 4.474432179325606995e+00
2.029945947492921121e+00 1.842053164818473936e-03 3.913815789473684248e+01 4.420632861102499866e+00
2.036236367431154548e+00 1.802040352124230577e-03 3.892231404958677388e+01 4.507527418521995344e+00
2.042538823796997693e+00 1.786279422623429517e-03 3.763218390804597391e+01 4.453599746827625161e+00
2.048720173306640469e+00 1.747373060808409071e-03 3.617118644067796396e+01 4.387169535757454497e+00
2.055017041239767028e+00 1.892889576395914968e-03 3.472300469483568008e+01 4.276568402531968793e+00
2.061465280497128294e+00 1.850343878148330047e-03 3.341506410256410220e+01 4.324000081080414226e+00
2.067778354784032935e+00 1.826644103880053095e-03 3.265539452495973904e+01 4.268166596042404670e+00
2.074107962816127415e+00 1.810449409964311413e-03 3.210317460317460103e+01 4.049377146970585706e+00
2.080392027050733006e+00 1.757304311173108879e-03 3.193811074918566817e+01 4.066945151483640331e+00
2.086560915145909245e+00 1.789004268885935290e-03 3.170502431118314490e+01 4.249515073668944432e+00
2.092907509218693285e+00 1.897916204239676529e-03 3.150152439024390105e+01 4.153587194867333743e+00
2.099341076602548206e+00 1.841856996552926774e-03 3.147812499999999858e+01 4.189117574703233871e+00
2.105598503643897335e+00 1.780460926307301031e-03 3.150479233226836939e+01 4.080654589343808425e+00
2.111872942412509335e+00 1.813036870717739954e-03 3.160493827160493652e+01 4.031984227958981926e+00
2.118179840511383194e+00 1.773074262998883873e-03 3.181259842519684966e+01 3.997737905843344652e+00
2.124489700938873238e+00 1.854176769044688739e-03 3.159327217125382248e+01 4.046632546821873788e+00
2.130866139955553962e+00 1.876679961187130126e-03 3.080635400907715749e+01 4.009070590580643412e+00
2.137196345481136905e+00 1.803165093871285981e-03 3.001393188854489225e+01 3.977274559015122168e+00
2.143477781291089013e+00 1.808033309626025679e-03 2.945038167938931295e+01 4.138367821170201744e+00
2.149749346762158453e+00 1.787076492040512573e-03 2.917972350230414591e+01 4.050971716644264475e+00
2.156014428448592479e+00 1.811767013668930289e-03 2.937899543378995304e+01 4.005325437540495415e+00
2.162388958755252943e+00 1.899773100682969557e-03 2.938978102189781083e+01 4.154026847341135031e+00
2.168776559916051561e+00 1.828625003914755194e-03 2.915765765765765849e+01 3.955762057918079666e+00
2.175079146577416189e+00 1.799027495536281414e-03 2.869253731343283675e+01 3.891313560955031559e+00
2.181358965593887422e+00 1.775037425494343461e-03 2.850451807228915513e+01 3.890537440003812186e+00
2.187625576602315824e+00 1.830837683859201127e-03 2.875887573964497079e+01 3.951715907222225432e+00
2.193923842198696850e+00 1.837507381709080519e-03 2.906901615271659267e+01 3.937624017481487826e+00
2.200310743338333541e+00 1.859271066102410235e-03 2.896269727403156224e+01 3.905995984250326458e+00
2.206637920896229677e+00 1.789161753318371274e-03 2.871555555555555728e+01 4.050807367577245799e+00
2.212855268310565560e+00 1.778695396750237757e-03 2.829160530191457923e+01 3.963484608747007254e+00
2.219155297956861617e+00 1.826812665150635666e-03 2.770503597122302253e+01 3.833257984675950247e+00
2.225534449623195243e+00 1.883537061579874895e-03 2.738222849083215849e+01 3.761357658490491751e+00
2.231816049321749151e+00 1.789850136339156059e-03 2.732158590308370094e+01 3.840409278453528863e+00
2.238124350048766420e+00 1.838516226422660244e-03 2.740363128491620159e+01 3.903471129323728750e+00
2.244461256680506001e+00 1.769483755913013904e-03 2.731837916063675920e+01 4.015035951997555586e+00
2.250672411056880762e+00 1.815340560525242463e-03 2.709612625538020225e+01 4.058689893850026209e+00
2.256976265699253581e+00 1.875232856265233962e-03 2.671961325966850964e+01 3.860624485197661659e+00
2.263404067221236105e+00 1.844596500685106652e-03 2.658677685950413050e+01 3.808541190301631296e+00
2.269740131332425914e+00 1.784620609829179342e-03 2.683592644978783426e+01 3.585252559980605991e+00
2.275928662030326066e+00 1.770462641505800294e-03 2.738319088319088479e+01 3.521060940562928732e+00
2.282234771450446509e+00 1.859120215862977580e-03 2.806639566395664076e+01 3.723108276879502299e+00
2.288651494096741512e+00 1.861574731480084791e-03 2.842740841248303951e+01 4.039290370942328678e+00
2.294929189507614264e+00 1.787386468760323059e-03 2.893258426966292163e+01 4.025148582157671129e+00
2.301123790424945526e+00 1.773889529887621910e-03 2.981666666666666643e+01 3.670758449229884590e+00
2.307427473574251042e+00 1.823767960867003161e-03 3.079161028416779544e+01 3.922231075420373525e+00
2.313824548022820782e+00 1.807223345639351721e-03 3.245170876671619453e+01 3.936557098345759620e+00
2.320154992066300714e+00 1.861695907969135875e-03 3.302514792899408036e+01 4.302125117007951083e+00
2.326479049872378635e+00 1.797363522119922990e-03 3.278274268104776468e+01 4.233396728318238544e+00
2.332811122143054305e+00 1.834923033436536115e-03 3.220364741641337503e+01 4.051513825228012955e+00
2.339146829363451641e+00 1.809933127175767861e-03 3.192778649921507039e+01 3.967015883056888459e+00
2.345346999874724947e+00 1.788822558822959720e-03 3.213183279742765563e+01 3.904676383288734787e+00
2.351591514044208964e+00 1.821961582186779451e-03 3.277795275590550972e+01 3.998517302236073601e+00
2.357940827546205931e+00 1.821480796874143165e-03 3.352848101265822578e+01 4.115618565330418477e+00
2.364269371024037891e+00 1.822839816105960298e-03 3.495192307692308020e+01 4.160157020463439714e+00
2.370575565839220911e+00 1.828742917233826173e-03 3.586816720257234437e+01 4.376026820762707992e+00
2.376891771469677561e+00 1.815523241845057745e-03 3.473948220064725234e+01 4.445971253021541614e+00
2.383240749019818416e+00 1.833462819707767054e-03 3.137942122186495197e+01 4.425851420052669738e+00
2.389601619010945921e+00 1.828185711102788165e-03 2.844136807817589485e+01 3.981191655955990338e+00
2.395961259100775731e+00 1.812604844355751544e-03 2.662639109697933293e+01 3.572067109147442743e+00
2.402160007896914973e+00 1.807533258736503850e-03 2.607910447761194206e+01 3.583729102394529686e+00
2.408453972146052724e+00 1.793232887210479852e-03 2.570614035087719174e+01 3.637371076648033164e+00
2.414771780432101167e+00 1.830638750947721858e-03 2.539598278335724402e+01 3.504476484413732607e+00
2.421058800843912895e+00 1.849123668637423033e-03 2.528288543140028466e+01 3.391624970751121015e+00
2.427397847212681370e+00 1.833909450969152099e-03 2.518888888888888999e+01 3.439860300780961833e+00
2.433701938443864954e+00 1.777285794113256248e-03 2.520956399437412188e+01 3.571055804989959004e+00
2.440001432560962691e+00 1.835928632076300280e-03 2.538030095759233973e+01 3.655039179248642967e+00
2.446276920633820851e+00 1.825543246774167941e-03 2.562585969738652025e+01 3.577758686365414054e+00
2.452612917458465880e+00 1.850886418197054181e-03 2.600265251989389981e+01 3.432949514726847173e+00
2.458937188373468086e+00 1.764090576915684772e-03 2.654109589041095774e+01 3.459315044082651003e+00
2.465235494564519847e+00 1.842465198645606636e-03 2.715455746367238987e+01 3.663896355644659319e+00
2.471581205305689810e+00 1.856761058240425245e-03 2.698421052631578831e+01 3.910309372745555123e+00
2.477865992864338285e+00 1.798850075022648308e-03 2.598535286284953472e+01 3.937058767255471103e+00
2.484122936716935737e+00 1.780971833254360159e-03 2.518097754293262724e+01 3.736603027504187047e+00
2.490467721662181333e+00 1.849468727863495983e-03 2.492592592592592737e+01 3.786888320780113393e+00
2.496849546734450254e+00 1.852734310658727887e-03 2.462324393358876051e+01 3.900826811584282794e+00
2.503105859710241798e+00 1.772860352036017325e-03 2.412005277044854878e+01 3.659699089858461374e+00
2.509322203788900918e+00 1.804578376445024500e-03 2.386025641025641164e+01 3.454025560223488611e+00
2.515643032193938478e+00 1.830400595634155535e-03 2.367884130982367807e+01 3.553970953834430624e+00
2.522012436559997628e+00 1.844427975373299751e-03 2.330148883374689817e+01 3.547801839673354163e+00
2.528376527697731913e+00 1.805263014170996501e-03 2.307537688442210921e+01 3.306486841184843151e+00
2.534662305746367750e+00 1.817191430107880853e-03 2.334130982367758023e+01 3.353979242662423310e+00
2.540923642722284104e+00 1.847774197163838152e-03 2.392326732673267387e+01 3.536087968472004572e+00
2.547222087144660030e+00 1.810867478977307979e-03 2.470544554455445407e+01 3.650003642536583826e+00
2.553540685742163419e+00 1.807658101810726481e-03 2.500000000000000000e+01 3.680475462872010439e+00
2.559925401613222018e+00 1.856915584780679824e-03 2.486467065868263404e+01 3.871370806608853687e+00
2.566280305514876403e+00 1.838802799104265022e-03 2.421912832929782056e+01 3.929702639362067096e+00
2.572544852388987113e+00 1.785952156998167010e-03 2.359631901840490897e+01 3.744572395431850609e+00
2.578799894204640619e+00 1.806472379669163885e-03 2.319830713422007307e+01 3.687403955197407157e+00
2.585123793491197919e+00 1.855120447360665906e-03 2.288249118683901173e+01 3.696972371001914226e+00
2.591472256141813091e+00 1.805120360344933915e-03 2.264123957091775807e+01 3.605659428879070649e+00
2.597744265483155957e+00 1.788819714346394623e-03 2.258033573141486983e+01 3.513539730943594286e+00
2.604038454996993934e+00 1.850630787333012181e-03 2.256410256410256565e+01 3.579848166086937233e+00
2.610374414453144443e+00 1.837105816396599096e-03 2.216763678696158379e+01 3.588564806215758907e+00
2.616634120485421100e+00 1.761050173804210722e-03 2.198329355608591840e+01 3.475751220005060205e+00
2.622940397920966227e+00 1.848634675493098997e-03 2.204323094425483376e+01 3.481202644024457449e+00
2.629323187355575353e+00 1.839581463337864892e-03 2.245776255707762559e+01 3.460127577221610462e+00
2.635681273538560632e+00 1.815290224604702678e-03 2.295761741122565880e+01 3.398400921319252976e+00
2.641934789831782204e+00 1.778405014700361417e-03 2.368544600938967193e+01 3.736224302444359768e+00
2.648176773767660031e+00 1.853093332118325998e-03 2.477113866967305356e+01 4.706889130404773525e+00
2.654514065851063087e+00 1.823524830511773481e-03 2.517175141242937997e+01 5.696967727171435847e+00
2.660817448321032508e+00 1.798052776896779401e-03 2.851877133105801931e+01 3.154338542187572614e+01
2.667123571907564994e+00 1.844852426740933296e-03 5.214444444444444571e+01 1.335213980631597224e+02
2.673472329675100401e+00 1.839448802019330543e-03 1.189435215946843840e+02 4.153746991719731909e+02
2.679761377760365715e+00 1.786299887381436651e-03 2.580837104072398347e+02 9.564665730199134259e+02
2.686129035698236578e+00 1.877272974428747035e-03 5.265715800636266977e+02 1.920124926755486285e+03
2.692300573720700196e+00 1.798376592015874225e-03 3.249955106621773098e+02 1.140538605598885624e+03
2.698561328278970439e+00 1.798779619418457414e-03 1.843603192702394438e+02 5.669310131396547376e+02
2.704947056964875252e+00 1.860594623228957294e-03 9.128089887640449263e+01 1.713544885238803204e+02
2.711339925705444909e+00 1.826229981736538378e-03 6.136921296296296191e+01 7.507043444416930811e+01
2.717643416720191052e+00 1.774618570520191145e-03 8.588424821002386977e+01 2.377329774424094637e+02
2.723934694222051256e+00 1.823763048442502126e-03 1.173022432113341154e+02 4.269194089440694029e+02
2.730274673678132036e+00 1.841398355898408350e-03 1.231145218417945699e+02 4.697265915883643856e+02
2.736591263199737778e+00 1.788312012670147501e-03 9.385853658536585442e+01 3.242517718115092862e+02
2.742885231028380222e+00 1.844652457607765493e-03 5.320503597122301898e+01 1.303868397894115105e+02
2.749161241756704843e+00 1.804773587711254630e-03 3.237223587223586918e+01 3.342641235177343617e+01
2.755398232824302962e+00 1.776157869081165970e-03 2.594547707558859884e+01 8.570543084242780552e+00
2.761751565609168679e+00 1.857903093933079139e-03 2.399163679808841110e+01 4.112651037907228968e+00
2.768124311574730267e+00 1.813883183384283311e-03 2.309447852760736097e+01 3.272645434095002415e+00
2.774423663616722546e+00 1.776295681999270643e-03 2.247690387016229607e+01 2.998605507248340629e+00
2.780754869867226198e+00 1.842436817654598789e-03 2.243118148599269190e+01 2.888043506055256948e+00
2.787077464795406190e+00 1.805278297034774168e-03 2.230750000000000099e+01 2.760131903550989918e+00
2.793346642012575654e+00 1.793644434711254678e-03 2.263808322824716157e+01 2.613807543328821925e+00
2.799634253246212179e+00 1.838111547031318375e-03 2.333746898263027347e+01 2.504969231498331173e+00
2.805924842988945844e+00 1.808245895551135627e-03 2.419444444444444287e+01 2.592785737153741721e+00
2.812167973206011862e+00 1.789098639402584082e-03 2.536445012787723741e+01 2.628414516235913823e+00
2.818496662748549042e+00 1.874446068014908040e-03 2.658435207823960766e+01 2.701367954350500700e+00
2.824858807967614460e+00 1.791571154666717633e-03 2.719490445859872452e+01 2.925045488740520394e+00
2.831150482550185643e+00 1.815112775054883139e-03 2.711518987341772302e+01 3.122728624945444675e+00
2.837475400148095517e+00 1.850316795954077458e-03 2.637608966376089725e+01 3.304172427574440629e+00
2.843805018276897911e+00 1.786824753329564535e-03 2.513735558408215809e+01 3.265614275407842548e+00
2.850131561922547352e+00 1.845583173970813699e-03 2.391635455680399502e+01 2.973312866244927299e+00
2.856484494638581229e+00 1.841115527677602507e-03 2.287048567870485627e+01 2.881080336554971755e+00
2.862782859862781137e+00 1.780809355167121575e-03 2.240178571428571530e+01 2.603676581678783908e+00
2.869068523143336158e+00 1.847699945098150954e-03 2.260368098159509032e+01 2.497506151981665479e+00
2.875378514069953706e+00 1.802909528894259443e-03 2.250686641697877732e+01 2.389301764690064722e+00
2.881671995666307051e+00 1.819305449905813353e-03 2.240621118012422386e+01 2.367632450932250165e+00
2.887980092673573917e+00 1.848812746508326317e-03 2.218627450980392268e+01 2.415704477745268086e+00
2.894292086458025270e+00 1.795011172749967111e-03 2.164572864321608137e+01 2.327393458159384920e+00
2.900588101801901963e+00 1.834444505730529681e-03 2.151915945611866476e+01 2.305867237728576491e+00
2.906894294921833044e+00 1.834235081131648307e-03 2.186369268897150064e+01 2.206465066528125796e+00
2.913143215321425394e+00 1.775388414920497622e-03 2.239692701664532493e+01 2.152136047520671003e+00
2.919469846096636179e+00 1.902110692867622259e-03 2.292805755395683320e+01 2.120079720796277378e+00
2.925831071463227850e+00 1.799019204260941503e-03 2.304187817258883086e+01 2.203671342068562300e+00
2.932125236913744715e+00 1.849572311535908030e-03 2.283312731767614423e+01 2.194865712222429543e+00
2.938426190430696305e+00 1.829943172517629413e-03 2.217727840199750489e+01 2.097797354244112178e+00
2.944698497868602605e+00 1.792371922793937686e-03 2.164213197969543145e+01 2.001497963852790551e+00
2.951032364443879619e+00 1.872648010744969562e-03 2.135800970873786397e+01 2.080522579993531629e+00
2.957349976869245278e+00 1.772646084934545842e-03 2.095396419437340185e+01 1.992086863210982717e+00
2.963641534615172990e+00 1.843499637433317897e-03 2.077654320987654302e+01 2.000410718382397590e+00
2.969974563050315375e+00 1.835483252247156055e-03 2.061366459627329206e+01 1.979228582405971659e+00
2.976261971728969780e+00 1.784595762971840369e-03 2.040433673469387799e+01 1.972783434486307330e+00
2.982555079221103078e+00 1.856376802478345786e-03 2.050183598531211615e+01 1.858109053802533772e+00
2.988860230475899549e+00 1.767956570045068222e-03 2.064276568501920650e+01 1.758816966426502981e+00
2.995178874680174186e+00 1.856934622757372335e-03 2.094987775061124680e+01 1.786219617013129701e+00
3.001496400543723020e+00 1.797819739674591305e-03 2.108871989860583085e+01 1.777509945352022669e+00
3.007822553902104179e+00 1.849516356328991537e-03 2.137252475247524686e+01 1.869585440843939628e+00
3.014155913686516808e+00 1.844070628166239031e-03 2.165465838509316754e+01 1.915497337245609000e+00
3.020427983220980828e+00 1.780401570183770890e-03 2.148076923076922995e+01 1.803910391945681146e+00
3.026726854870708916e+00 1.864734463497724846e-03 2.236185819070904657e+01 1.649350660678155833e+01
3.033042693621903041e+00 1.790509691971886499e-03 2.834566326530612201e+01 9.477463649685064695e+01
3.039417687211595442e+00 1.892848977299335135e-03 2.942391304347826164e+01 1.248374287288719557e+02
3.045771113053035606e+00 1.809002971513908259e-03 2.213688212927756638e+01 3.795770699635315992e+01
3.052089874155329063e+00 1.844438578281415919e-03 1.988089330024813961e+01 2.490788650586577280e+00
3.058386304167925118e+00 1.824217551217444024e-03 1.977443609022556359e+01 1.775343848346901510e+00
3.064635661305841197e+00 1.781811879387494579e-03 1.997307692307692406e+01 1.959986817167759909e+00
3.070942258104439215e+00 1.879278577764203085e-03 2.030787878787878853e+01 2.502872692961375378e+00
3.077306102136554866e+00 1.789896323379901438e-03 2.198348157560355887e+01 9.782823987042126745e+00
3.083610248093582751e+00 1.842323938384468965e-03 3.237269372693727121e+01 7.195717981928882523e+01
3.089899276602742884e+00 1.781295098450355954e-03 6.679872611464968202e+01 2.304385102432401027e+02
3.096219282790054539e+00 1.849962857272845727e-03 1.141654411764705941e+02 4.234742058012772077e+02
3.102516781183005889e+00 1.793151767743564459e-03 1.628504435994930191e+02 5.876366310424760968e+02
3.108846425703184035e+00 1.844538984569745127e-03 1.337170971709716980e+02 3.573132463628788855e+02
3.115155056293756886e+00 1.812510444856532069e-03 1.011518193224592181e+02 2.149775272947341875e+02
3.121484332076036150e+00 1.832521331068808152e-03 5.311042183622829072e+01 9.357835508038911598e+01
3.127777573742708483e+00 1.818133687887086257e-03 3.184413965087281895e+01 3.086919070300294621e+01
3.134074710556275623e+00 1.800750836428910992e-03 2.426103404791929208e+01 7.092900646348915927e+00
3.140350968701055567e+00 1.840082388152106639e-03 2.202463054187192171e+01 4.333045780805029779e+00
3.146669598331559570e+00 1.795769837056059460e-03 2.040151515151515227e+01 3.002675510848047846e+00
3.152959210157879166e+00 1.842768641532451131e-03 1.905276073619631916e+01 2.117349903149643442e+00
3.159264892205651432e+00 1.791857333635609589e-03 1.834936708860759325e+01 2.440150454645670930e+00
3.165581888857809112e+00 1.858342078644047027e-03 1.796966019417475735e+01 3.015375478770678352e+00
3.171905560319084216e+00 1.782720971754531017e-03 1.769961977186311941e+01 2.078774837122027819e+00
3.178180461481988406e+00 1.828434529921516482e-03 1.757248157248157128e+01 1.507066103979586957e+00
3.184506679420991304e+00 1.810619157308176325e-03 1.760273972602739789e+01 1.512042449479215067e+00
3.190846230582273346e+00 1.831490456789015321e-03 1.744498777506112575e+01 1.555599334045920212e+00
3.197132365687451294e+00 1.780884113596707067e-03 1.723037974683544249e+01 1.507492370752481881e+00
3.203454230992797136e+00 1.862619862555806765e-03 1.734137515078407787e+01 1.508213222999331249e+00
3.209790152929830498e+00 1.796864404628749357e-03 1.735597484276729574e+01 1.424676988366810892e+00
3.216105270782768422e+00 1.849581865447865814e-03 1.774029126213592278e+01 1.411706698510855729e+00
3.222383723154825574e+00 1.773184836801974633e-03 1.813071065989847597e+01 1.444254990655544191e+00
3.228652903688512765e+00 1.829814433570467642e-03 1.864433617539585697e+01 1.511140319841173252e+00
3.234977992221026444e+00 1.801123950508762587e-03 1.877860696517413075e+01 1.644896618039419778e+00
3.241301441286830176e+00 1.830570155328411054e-03 1.847873633049817599e+01 1.649719819399740217e+00
3.247581817024004280e+00 1.774748969754167847e-03 1.740581542351453948e+01 1.552347866769285156e+00
3.253885986942128827e+00 1.868811343678552150e-03 1.654371257485030000e+01 1.567521482186813309e+00
3.260235987169183947e+00 1.804603356501592029e-03 1.603375000000000128e+01 1.640930566782158317e+00
3.266546856392692710e+00 1.857627301288636550e-03 1.576201923076922995e+01 1.956449463572546454e+00
3.272886904023045052e+00 1.792569475559808913e-03 1.572625000000000028e+01 3.191154767478373788e+00
3.279153478698136670e+00 1.837211362056317054e-03 1.558424242424242401e+01 2.961158535344193155e+00
3.285516195699416553e+00 1.819318898053023329e-03 1.541646191646191610e+01 2.983417699522314059e+00
3.291677990232397821e+00 1.824817096246810931e-03 1.496854521625163770e+01 1.839644115679499814e+00
3.298068987764390059e+00 1.863784166448585874e-03 1.469452054794520635e+01 1.508683814809494317e+00
3.304430978840338096e+00 1.814787339162488022e-03 1.473691860465116221e+01 1.408094945331318959e+00
3.310737564052387061e+00 1.817945227602999880e-03 1.468898809523809490e+01 1.481376200169477464e+00
3.317033906120231190e+00 1.800198345421728579e-03 1.453775038520801210e+01 1.333382497394077326e+00
3.323313479518194669e+00 1.810036704891648416e-03 1.446081504702194387e+01 1.408094151627400814e+00
3.329645772824664451e+00 1.853775369266378323e-03 1.429485179407176254e+01 1.454225036455120801e+00
3.335990548707715053e+00 1.826590486813650920e-03 1.428731942215088324e+01 1.406164565291847302e+00
3.342268739174953929e+00 1.807641793864574143e-03 1.416802610114192440e+01 1.407195061374276746e+00
3.348554594221377023e+00 1.807536448754866812e-03 1.395065789473684248e+01 1.352671816803716176e+00
3.354810866618635590e+00 1.798386852034845364e-03 1.381407035175879372e+01 1.128417666979178557e+00
3.361143554435736203e+00 1.860575678898459748e-03 1.357049180327868854e+01 1.135882226824981078e+00
3.367505271257411170e+00 1.829077091643749146e-03 1.334797297297297369e+01 1.193780009202926040e+00
3.373804785089639324e+00 1.803149868685275390e-03 1.313864818024263492e+01 1.283171165025775329e+00
3.380079784639911100e+00 1.805631642174917659e-03 1.295782073813708202e+01 1.239327386070938397e+00
3.386416571036835244e+00 1.843579116849991192e-03 1.308802816901408406e+01 1.267612969462345696e+00
3.392732849186819166e+00 1.821713749179523084e-03 1.307078039927404767e+01 1.302872956122727244e+00
3.399077842768783331e+00 1.840157085703132342e-03 1.292210144927536319e+01 1.145701215388304384e+00
3.405368445234043140e+00 1.771416845865005909e-03 1.293893129770992445e+01 1.156614509553959058e+00
3.411642977450664915e+00 1.840004348347408980e-03 1.280639097744360910e+01 1.257955631781315420e+00
3.417946432239648225e+00 1.816648589106147462e-03 1.280970873786407793e+01 1.180884286932206262e+00
3.424268333461439884e+00 1.838339958730071926e-03 1.269632495164410102e+01 1.133300534402125859e+00
3.430601598134079389e+00 1.799761940178920376e-03 1.243286573146292540e+01 1.164723528252722407e+00
3.436922606236269218e+00 1.844213366763177700e-03 1.246000000000000085e+01 1.123085036851616980e+00
3.443269856433799347e+00 1.834668830692703879e-03 1.257055214723926362e+01 1.162103113477791494e+00
3.449516618902171317e+00 1.769622948488585408e-03 1.254059829059829134e+01 1.213148435095755318e+00
3.455771942280530862e+00 1.817195070858158281e-03 1.244397463002114179e+01 1.169746636275282414e+00
3.462154010515302804e+00 1.866018191136946868e-03 1.245147679324894519e+01 1.113624336357360800e+00
3.468478914699885340e+00 1.799468636805881495e-03 1.259201773835920157e+01 1.164442979991153759e+00
3.474737530089159865e+00 1.798535080277152308e-03 1.256726457399103225e+01 1.075667826094445001e+00
3.481027808853469629e+00 1.828779808500339806e-03 1.258144796380090469e+01 1.121720278392498438e+00
3.487370903609774420e+00 1.855504762412056021e-03 1.269004524886877761e+01 1.112685232272541347e+00
3.493710577164840458e+00 1.791815171782784382e-03 1.250591016548463408e+01 1.076551203381901134e+00
3.499981309375833849e+00 1.817721919481020843e-03 1.235560859188544214e+01 1.090608562572503715e+00
3.506294281862427642e+00 1.840208171226962808e-03 1.210551558752997536e+01 1.267054241225189726e+00
3.512643170548069183e+00 1.819719049123772565e-03 1.197051597051597049e+01 1.112379201532345041e+00
3.518887929185086527e+00 1.780316295825717758e-03 1.213333333333333286e+01 1.089812969133835407e+00
3.525201780775713889e+00 1.871585280235478531e-03 1.224813895781637640e+01 1.203215546176674478e+00
3.531587235286628879e+00 1.812415240060859375e-03 1.236979166666666607e+01 1.143208404329308037e+00
3.537791204901774123e+00 1.765649031450039182e-03 1.231062670299727557e+01 1.063257016820614353e+00
3.544104483213670331e+00 1.881636984785636617e-03 1.210677083333333393e+01 1.118882867653167468e+00
3.550526160049383151e+00 1.823753900979235669e-03 1.228961748633879836e+01 1.202899688678576773e+00
3.556826252644191833e+00 1.805941154371571225e-03 1.240845070422535201e+01 1.110998914302722795e+00
3.563110991539715666e+00 1.831382697511484874e-03 1.224431818181818166e+01 1.237704246856229151e+00
3.569418747584309326e+00 1.819035597463529485e-03 1.209883720930232620e+01 1.098014026593465697e+00
3.575721219182565580e+00 1.815191134896390569e-03 1.192284866468842708e+01 1.013143467284590926e+00
3.582041784633743120e+00 1.836067019019354488e-03 1.165465465465465478e+01 1.072366443716619600e+00
3.588351193306853926e+00 1.816205673054769026e-03 1.140247678018575783e+01 9.907943077326438752e-01
3.594644124218077774e+00 1.816162507538995278e-03 1.141009463722397399e+01 1.053906345988060211e+00
3.600965899690116157e+00 1.832434222657099978e-03 1.144089456869009602e+01 1.024613141503987634e+00
3.607301933810233674e+00 1.823864462282996299e-03 1.123934426229508254e+01 1.028714322712234397e+00
3.613589615564896995e+00 1.801875725405921403e-03 1.110169491525423702e+01 9.496669308327952974e-01
3.619872304563952703e+00 1.819848024125704684e-03 1.119587628865979312e+01 1.040471291302278667e+00
3.626184481674183946e+00 1.827760715362539709e-03 1.128771929824561404e+01 1.094956118390306266e+00
3.632455309189269510e+00 1.797655079431180383e-03 1.122627737226277311e+01 1.141770107844733984e+00
3.638754857574894697e+00 1.841922947680418475e-03 1.109489051094890577e+01 1.197058037891775006e+00
3.645110863435991444e+00 1.833895812584415653e-03 1.103007518796992414e+01 1.171063191639469814e+00
3.651399341121458253e+00 1.797724079201825547e-03 1.065098039215686221e+01 9.753596326064084554e-01
3.657684783062496781e+00 1.823089633617003442e-03 1.053968253968253954e+01 9.782208849606739420e-01
3.663989311092172851e+00 1.817352227903809700e-03 1.037704918032786949e+01 1.100835235416024238e+00
3.670338462676961733e+00 1.852037082036360515e-03 1.049586776859504056e+01 9.979146345866828360e-01
3.676667454351053799e+00 1.802731285318214709e-03 1.021834061135371208e+01 8.648934357552521268e-01
3.682957402673964431e+00 1.831301914300888494e-03 1.010619469026548600e+01 9.206517557771015658e-01
3.689264510226057059e+00 1.810576500315507495e-03 1.028110599078340925e+01 8.149909969619371086e-01
3.695607159299667099e+00 1.851070780809128090e-03 1.015348837209302246e+01 9.978776829852973318e-01
3.701906411334345837e+00 1.786914693256676148e-03 1.018407960199004947e+01 1.047083450770473600e+00
3.708163258087520564e+00 1.825159420261267002e-03 9.974874371859296929e+00 1.019530994329142848e+00
3.714507337749332283e+00 1.833043865117713490e-03 9.906735751295336456e+00 9.875598736347744877e-01
3.720870273368275249e+00 1.842023606415223082e-03 9.989304812834225444e+00 9.810174638491508947e-01
3.727157013165883104e+00 1.785929560704693081e-03 9.977142857142856869e+00 1.025073416982452912e+00
3.733414267292576749e+00 1.823616893326991065e-03 9.622093023255814614e+00 9.151761157707475336e-01
3.739747614563589284e+00 1.832601406324968355e-03 9.493975903614458645e+00 1.132722362561080720e+00
3.746091684029914770e+00 1.828992002129592063e-03 9.490566037735849392e+00 1.168847239171080687e+00
3.752406222021260618e+00 1.812401454337024109e-03 9.470198675496689589e+00 1.058194428470139892e+00
3.758712131096641595e+00 1.823143945980814458e-03 9.682758620689655871e+00 1.159933574710547033e+00
3.765000355804634324e+00 1.809969724265664184e-03 9.656934306569343818e+00 1.109128831265991044e+00
3.771324791207556704e+00 1.846593531196991230e-03 9.654135338345865236e+00 1.168973461697183192e+00
3.777640884128447674e+00 1.800430178895984180e-03 9.439024390243902829e+00 1.088490068211047213e+00
3.783890033752419058e+00 1.812352582976840126e-03 9.700854700854700141e+00 9.706406784998827808e-01
3.790205950757557840e+00 1.839564216382759279e-03 9.392857142857142350e+00 8.969548824910260620e-01
3.796547481197723339e+00 1.823144808823023381e-03 9.086538461538461675e+00 1.097671014833103031e+00
3.802839460639445335e+00 1.822115437231795494e-03 9.247422680412370255e+00 1.163487817091685583e+00
3.809162628389719529e+00 1.835235423465040759e-03 9.219780219780218999e+00 8.440104149152721780e-01
3.815477698903783743e+00 1.813833779597889004e-03 8.927710843373494853e+00 1.078229114305078395e+00
3.821777178949230969e+00 1.830898415393102585e-03 9.077922077922078614e+00 9.160218168614204792e-01
3.828076951026545771e+00 1.795694771849016581e-03 9.362318840579710866e+00 9.728513882225165998e-01
3.834316772867639944e+00 1.791896653628349866e-03 9.370967741935483986e+00 1.162857365656511766e+00
3.840583618544390898e+00 1.820001018717854217e-03 8.946428571428571175e+00 1.178571428571428825e+00
3.846911872181034475e+00 1.824281646184678762e-03 8.897959183673469497e+00 1.082210088454110375e+00
3.853313008086272973e+00 1.880829953221405115e-03 9.674418604651162212e+00 1.001351169377255212e+00
3.859656947796285653e+00 1.787945514535103963e-03 1.023529411764705799e+01 1.240883712336998901e+00
3.865825284683709118e+00 1.773175751446867720e-03 9.814814814814814881e+00 1.184606340127368096e+00
3.872064552013789740e+00 1.858490478498285668e-03 9.095238095238094900e+00 9.977298495122361999e-01
3.878243048288448236e+00 1.738115315901965106e-03 9.307692307692308376e+00 1.040596096805283199e+00
3.884441558101385361e+00 1.990091083924331716e-03 9.142857142857142350e+00 1.414213562373094923e+00
