# q qerr I(q) I(q)err
6.111313073595031620e-02 3.154100855865873791e-03 0.000000000000000000e+00 5.714285714285713969e-01
6.800242608866982619e-02 2.110752812487300123e-03 0.000000000000000000e+00 0.000000000000000000e+00
7.478812129850326285e-02 1.894856213165734514e-03 0.000000000000000000e+00 0.000000000000000000e+00
8.081736842982174818e-02 1.577734731020807597e-03 0.000000000000000000e+00 0.000000000000000000e+00
8.706192866790804508e-02 2.018057842609979804e-03 0.000000000000000000e+00 0.000000000000000000e+00
9.311361532868518698e-02 1.734318039620741251e-03 0.000000000000000000e+00 0.000000000000000000e+00
9.924832822165428892e-02 1.939409616079583844e-03 0.000000000000000000e+00 0.000000000000000000e+00
1.056867454532435108e-01 2.068262530006435406e-03 4.166666666666666435e-02 2.041241452319315364e-01
1.120935416356093062e-01 1.699923986068800717e-03 2.307692307692307820e-01 5.131409255433204697e-01
1.177168722532570266e-01 1.903764278506084144e-03 4.062500000000000000e-01 9.702609185162515137e-01
1.242406998858587575e-01 2.007415885574503726e-03 8.571428571428570953e-01 1.606745982743141621e+00
1.307844605212421796e-01 1.948859987027574741e-03 9.642857142857143016e-01 1.689553738930695825e+00
1.372938405551752672e-01 1.976444694498947011e-03 8.709677419354838745e-01 1.649582925876850847e+00
1.433626874055373979e-01 1.479129257371093872e-03 1.199999999999999956e+00 1.802220852171009469e+00
1.497414395840910573e-01 2.132896554945924294e-03 8.108108108108108558e-01 1.511098459296687624e+00
1.562016171858009728e-01 1.470810848565314282e-03 1.148148148148148140e+00 1.769657380059302287e+00
1.620883487451751925e-01 1.817360580555445800e-03 1.121212121212121104e+00 1.896059419510382815e+00
1.684939590642719198e-01 1.975568076388520972e-03 1.378378378378378288e+00 2.266567121376487304e+00
1.749358117034872373e-01 1.810730169671130639e-03 1.714285714285714191e+00 2.523360247522242084e+00
1.813634234827302405e-01 1.982290824745188643e-03 1.439024390243902385e+00 2.406984680637934471e+00
1.877608813777307539e-01 1.710969833005861022e-03 1.729729729729729826e+00 2.552301701152007940e+00
1.936838392192468117e-01 1.708352888559126238e-03 1.842105263157894690e+00 2.689623026031838560e+00
1.998200724089964908e-01 1.901042836663710675e-03 1.883720930232558155e+00 2.754709817079018297e+00
2.064988844748374130e-01 2.083185659227047067e-03 2.083333333333333481e+00 2.928843628464994797e+00
2.131062600015138364e-01 1.923054290541973939e-03 1.851063829787233939e+00 2.945636912807048979e+00
2.193208008558340527e-01 1.649587748772136844e-03 2.325581395348837344e+00 3.381782390439971309e+00
2.255197753110727010e-01 1.943898002345461392e-03 2.117647058823529438e+00 3.405335389044675143e+00
2.319084130262620835e-01 1.853433278599466881e-03 2.399999999999999911e+00 3.584410690755176265e+00
2.380456302514551703e-01 1.717913041466973250e-03 2.479166666666666519e+00 3.692498965620858886e+00
2.441826744061198484e-01 1.910984005326162374e-03 2.454545454545454586e+00 3.761264074485667575e+00
2.508567628905887248e-01 1.865639566994751813e-03 2.112903225806451513e+00 3.501894834194862582e+00
2.571616352083493928e-01 2.042758540577210586e-03 1.792682926829268331e+00 3.304225477828106605e+00
2.636090936505812721e-01 1.759536909171210452e-03 1.766233766233766156e+00 3.368221314794250798e+00
2.696276322290375727e-01 1.767913466712890637e-03 1.787500000000000089e+00 3.448142615960076540e+00
2.756934411426098519e-01 1.847457432374286813e-03 1.690476190476190466e+00 3.333886008604275197e+00
2.820483295007140123e-01 1.942127748479487680e-03 1.786516853932584192e+00 3.416303174910886309e+00
2.885873542857223528e-01 1.999902870285049771e-03 1.715789473684210531e+00 3.351420916665768246e+00
2.950059364807982032e-01 1.753155416080761590e-03 1.686046511627907085e+00 3.202849934271078336e+00
3.012776628394395750e-01 1.916275679195857595e-03 1.578947368421052655e+00 3.041358495121032846e+00
3.076468654533095481e-01 1.858480647863890167e-03 1.580645161290322509e+00 2.969786579442485586e+00
3.139397285054469910e-01 1.849733180513128640e-03 1.478723404255319229e+00 2.955226474045900442e+00
3.202097007249891103e-01 1.889977811219999311e-03 1.540816326530612290e+00 2.989569539385309227e+00
3.264390569218261762e-01 1.757358001834326191e-03 1.537634408602150504e+00 3.035021237775322955e+00
3.326951465344144543e-01 1.930481388006281569e-03 1.432692307692307709e+00 2.877234146078651911e+00
3.390239669727912464e-01 1.785238221274862988e-03 1.561224489795918435e+00 2.885031527346957780e+00
3.452290355408559885e-01 1.822729964848564038e-03 1.421568627450980449e+00 2.730176532479278162e+00
3.515217579766085620e-01 1.894166946962649433e-03 1.390476190476190421e+00 2.590055988328386682e+00
3.581115149106128270e-01 1.984833837990382030e-03 1.371681415929203451e+00 2.558624253446874164e+00
3.646365217867122976e-01 1.807385512883236643e-03 1.336448598130841159e+00 2.556326765756226305e+00
3.707522342694583029e-01 1.646676631311451595e-03 1.409999999999999920e+00 2.622212806009458941e+00
3.768404479121448269e-01 1.835047814059704218e-03 1.234234234234234284e+00 2.440543699843980896e+00
3.831651369708888866e-01 1.834489868729198949e-03 1.342342342342342398e+00 2.486600728541512595e+00
3.894643253735652899e-01 1.853753096359237081e-03 1.256637168141592875e+00 2.362715850123558781e+00
3.958807651630259494e-01 1.912159574900255954e-03 1.225000000000000089e+00 2.280624914360097399e+00
4.022473572087105209e-01 1.746533598099251966e-03 1.279279279279279313e+00 2.392973237524838925e+00
4.083991683103055381e-01 1.862831917861469243e-03 1.285714285714285809e+00 2.428077062881101256e+00
4.147868792651558945e-01 1.850918924272050396e-03 1.330578512396694224e+00 2.526074663731888492e+00
4.211381020132339281e-01 1.813003092898375071e-03 1.256198347107438051e+00 2.381599659626632448e+00
4.273404438934948479e-01 1.765577699919095717e-03 1.252100840336134446e+00 2.322142367160865195e+00
4.337195733954657406e-01 1.911235613422362228e-03 1.246153846153846168e+00 2.299446807669569104e+00
4.400834723796714920e-01 1.795304431444431784e-03 1.217741935483870996e+00 2.233070195358520582e+00
4.463380503116383125e-01 1.781136916513354146e-03 1.119047619047619069e+00 2.055448302650232595e+00
4.525475293404462862e-01 1.782735370135076804e-03 1.086614173228346525e+00 2.071809012622825907e+00
4.588781844142776345e-01 1.863542184770878652e-03 1.201492537313432862e+00 2.176470499695243976e+00
4.652813857520213814e-01 1.809454061223974295e-03 1.067669172932330879e+00 2.069213367326547370e+00
4.715886271752884884e-01 1.786725641485754782e-03 1.119402985074626766e+00 2.028176438540260751e+00
4.778700308571910971e-01 1.749120838384908864e-03 9.699248120300751896e-01 1.832967978300443557e+00
4.841075358786299798e-01 1.812598873705853009e-03 9.492753623188405765e-01 1.784787168935079382e+00
4.904685449060671165e-01 1.813034819841214708e-03 1.092857142857142749e+00 1.899033051479685374e+00
4.967988078032400945e-01 1.775169993053363985e-03 9.787234042553191182e-01 1.821687499216473993e+00
5.030461340587593089e-01 1.710738770771227935e-03 1.036231884057970953e+00 1.887900207046558032e+00
5.093789740337634209e-01 1.844995629980458740e-03 9.865771812080537106e-01 1.815222233040995725e+00
5.157895609665918979e-01 1.772173611217854692e-03 1.020547945205479534e+00 1.865253488428066930e+00
5.220653538623039047e-01 1.710912446064493482e-03 9.720279720279719760e-01 1.771689051985154029e+00
5.282420832211931483e-01 1.776221308977217429e-03 9.256756756756756577e-01 1.682798722744642816e+00
5.345849814872509764e-01 1.797460663252185451e-03 9.210526315789473450e-01 1.593518294220879428e+00
5.409400198384390901e-01 1.769240412124692928e-03 8.888888888888888395e-01 1.628985810632441078e+00
5.471612929737256215e-01 1.671871176479489780e-03 9.391891891891891442e-01 1.683368349253822283e+00
5.535187503546902255e-01 1.843477994232445120e-03 8.148148148148147696e-01 1.493316921328587954e+00
5.599303633336802921e-01 1.774845713676194252e-03 7.834394904458599207e-01 1.403862692592667827e+00
5.661980099607780703e-01 1.715649351238413218e-03 7.987012987012986898e-01 1.506605459342209352e+00
5.724333289920446877e-01 1.764199560704661452e-03 8.437500000000000000e-01 1.557115723059786072e+00
5.786575496797814466e-01 1.687338640378493104e-03 9.090909090909090606e-01 1.626957090479678181e+00
5.849918082512260975e-01 1.882166412490617838e-03 8.430232558139535426e-01 1.598699782677317716e+00
5.913559560974818163e-01 1.673563701773732749e-03 8.726114649681528945e-01 1.612698100731820183e+00
5.976003341774964728e-01 1.789272139650604403e-03 7.633136094674556338e-01 1.454020864529181001e+00
6.039710484280985670e-01 1.760471037718898532e-03 7.440476190476190688e-01 1.386023120551366450e+00
6.103455122609070527e-01 1.778153705054047679e-03 7.368421052631578538e-01 1.384742965661130309e+00
6.165941547084902163e-01 1.709282904712068618e-03 7.485029940119760639e-01 1.318195165923529588e+00
6.227886440901039267e-01 1.708031916550016484e-03 7.142857142857143016e-01 1.307032261779843108e+00
6.292222757675741684e-01 1.895555695838723603e-03 7.165775401069518491e-01 1.301367415689788976e+00
6.355837393651907474e-01 1.609918394456906487e-03 7.030303030303030054e-01 1.291350045615909714e+00
6.417201133152361514e-01 1.735489606861494215e-03 6.629213483146066954e-01 1.277370460564805743e+00
6.480234646877054416e-01 1.746502386866512820e-03 7.191011235955055980e-01 1.286651776448920259e+00
6.543745591304535036e-01 1.808595843625667669e-03 6.793478260869565410e-01 1.221992469478898835e+00
6.607410482875138991e-01 1.776914150084337417e-03 6.576086956521739468e-01 1.202549277038202691e+00
6.669765730033264672e-01 1.670208017253243388e-03 6.363636363636363535e-01 1.161316935549201013e+00
6.731673103258457580e-01 1.796482171393593615e-03 6.117021276595744350e-01 1.183364203228669531e+00
6.795850853652600776e-01 1.822834825668488831e-03 6.649214659685863671e-01 1.204746058028354661e+00
6.858902177354958551e-01 1.747430487391250960e-03 5.698924731182796188e-01 1.087962706712261030e+00
6.921278880332987216e-01 1.765781770802452586e-03 5.820105820105819783e-01 1.090024140698758748e+00
6.985070946107704293e-01 1.847715388967816497e-03 5.353535353535353591e-01 1.077285868450442496e+00
7.048037128132643714e-01 1.757666077632949074e-03 5.555555555555555802e-01 1.047097834107038716e+00
7.109847861020758275e-01 1.767854622430342420e-03 5.468750000000000000e-01 1.026028447461375226e+00
7.172345948602801835e-01 1.822657136245004524e-03 5.303030303030302761e-01 9.945520408007995083e-01
7.236608500653414211e-01 1.906739358311473767e-03 5.365853658536585691e-01 9.963645995462855343e-01
7.299519259881649402e-01 1.814756391122580772e-03 5.102040816326530726e-01 9.244132058196222745e-01
7.362298620906445601e-01 1.872001608046580190e-03 4.803921568627451122e-01 8.839582347076248015e-01
7.427109241448597299e-01 1.961252361706546793e-03 4.345794392523364413e-01 8.511089291585349770e-01
7.489749171607754663e-01 1.795506848231544564e-03 4.666666666666666741e-01 9.086479107118582421e-01
7.553119902396251417e-01 1.968290517240121971e-03 4.474885844748858199e-01 9.279860043276617620e-01
7.617428847945948434e-01 1.878647625832918257e-03 4.927536231884058204e-01 9.279135705888518215e-01
7.679897535333021219e-01 1.889655825210407886e-03 4.258373205741626810e-01 8.170618261189485088e-01
7.742716946001383382e-01 1.890740870187222538e-03 4.225352112676056260e-01 8.402837833770765430e-01
7.806130493972306406e-01 1.874127862848933099e-03 4.339622641509434109e-01 8.537084307465057087e-01
7.869955317179381238e-01 1.962138593108325030e-03 3.883928571428571508e-01 7.664802855006935811e-01
7.933337815560531636e-01 1.823456314192357453e-03 3.809523809523809312e-01 7.429181904097673650e-01
7.995722808394026826e-01 1.873920736445982161e-03 3.438914027149321262e-01 6.997353888887272166e-01
8.059029702364099990e-01 1.855844282913126459e-03 3.835616438356164171e-01 7.529678980757547047e-01
8.122482529694946551e-01 1.899897789708842157e-03 3.656387665198237991e-01 7.538962558051788276e-01
8.185971333973350861e-01 1.831057107996742058e-03 3.766816143497757619e-01 7.418780737246530865e-01
8.248840800988579414e-01 1.805078930334647752e-03 3.856502242152466398e-01 7.433403307181812858e-01
8.311527541867054225e-01 1.843524136775542745e-03 3.973799126637554413e-01 7.627684805026397896e-01
8.375116084758876811e-01 1.829773299230467044e-03 3.956521739130434701e-01 7.895824552801309348e-01
8.438261475186588090e-01 1.817550564165925373e-03 3.922413793103448065e-01 8.086234468006812115e-01
8.500843452560248314e-01 1.755513946144033992e-03 3.982300884955752296e-01 8.216040918435375540e-01
8.563647400134730692e-01 1.844487251387733453e-03 3.568464730290456521e-01 7.612722747595348505e-01
8.626696591174244366e-01 1.710203360544058351e-03 4.254385964912280604e-01 8.638903610200446836e-01
8.689830853488446083e-01 1.844123492424595270e-03 4.227642276422764467e-01 8.890830312145655556e-01
8.753179752476163422e-01 1.741457950302257533e-03 3.787234042553191404e-01 8.547049769104281269e-01
8.815756228481118617e-01 1.752464905610253906e-03 3.568464730290456521e-01 8.291075284575231130e-01
8.877944678552249780e-01 1.716242394594354789e-03 3.670886075949367222e-01 9.264750577792525421e-01
8.941407927930166144e-01 1.839522330085644050e-03 3.873517786561264664e-01 9.163143165749950692e-01
9.005003621585947471e-01 1.752218829319661820e-03 4.081632653061224580e-01 9.595743885079377478e-01
9.067627482844141662e-01 1.720498064613873055e-03 4.549180327868852514e-01 1.014160026322039387e+00
9.130278025298368405e-01 1.789374596252915357e-03 4.444444444444444198e-01 1.009216784699163982e+00
9.193563827426239898e-01 1.786117629316656989e-03 4.444444444444444198e-01 9.813067629253166002e-01
9.256709965929463824e-01 1.773964252230773864e-03 4.196078431372549100e-01 9.630864775527202548e-01
9.319487846442510159e-01 1.740175819907428248e-03 3.880000000000000115e-01 9.460486245431575236e-01
9.382375230166524194e-01 1.835219923763222079e-03 3.740458015267175695e-01 9.444849100098383632e-01
9.445114335627492475e-01 1.754301698834087597e-03 3.675889328063240979e-01 8.828220519573612979e-01
9.507739483173833772e-01 1.796477233495237351e-03 3.793103448275861878e-01 8.483194705795417123e-01
9.571000001339345920e-01 1.844157663989784944e-03 4.188679245283019048e-01 9.730801675401415940e-01
9.634651872700409347e-01 1.860525514413665987e-03 3.909774436090225347e-01 9.728056535119319337e-01
9.697902983397413967e-01 1.869026222830578836e-03 3.759398496240601295e-01 9.434817036593332595e-01
9.761731987705594138e-01 1.898719003246270758e-03 3.505535055350553764e-01 9.213498249444178612e-01
9.824546988499620603e-01 1.850375251942234242e-03 3.433962264150943189e-01 9.195863295221012867e-01
9.887603507672997338e-01 1.885371791598095068e-03 3.272058823529411797e-01 8.622087793793069554e-01
9.951547945742836854e-01 1.923480157877882840e-03 2.953736654804270390e-01 7.976374354308667369e-01
1.001497743307979915e+00 1.816985016266823736e-03 3.295880149812733806e-01 8.726511388291054994e-01
1.007730073445106012e+00 1.872875193246743668e-03 3.561151079136690711e-01 9.672714710199709076e-01
1.014110590476311025e+00 1.881534321868284657e-03 3.226950354609929295e-01 9.069421908913665176e-01
1.020442888611849064e+00 1.823625195420996601e-03 2.974910394265232738e-01 8.134305749357059190e-01
1.026691701700078063e+00 1.782759485576686145e-03 2.898550724637681264e-01 7.399114941083370089e-01
1.033057845114525142e+00 1.884320384582664851e-03 2.789115646258503167e-01 6.984145389733381615e-01
1.039437792018165441e+00 1.793463056649077922e-03 2.968197879858657240e-01 7.690202054010673027e-01
1.045681248368910410e+00 1.745618337461533540e-03 2.624113475177304866e-01 7.552275774411842946e-01
1.051944871571292683e+00 1.801987856022948175e-03 2.655172413793103203e-01 7.584482562651383430e-01
1.058324809813473877e+00 1.829265674919061668e-03 2.659932659932660037e-01 7.481796657876133017e-01
1.064596602572098316e+00 1.714864743882408334e-03 2.500000000000000000e-01 7.633783327245013961e-01
1.070868750588993112e+00 1.792957436204007347e-03 2.525252525252525415e-01 7.920334212949939889e-01
1.077195490251847465e+00 1.798916779777443367e-03 2.709030100334448021e-01 7.744406962216640045e-01
1.083505800573759448e+00 1.740543057611223946e-03 2.696245733788396048e-01 7.058248225476376758e-01
1.089676915900379850e+00 1.748165881083384946e-03 2.312925170068027281e-01 5.904667857177614554e-01
1.096052400832523421e+00 1.863573573199493825e-03 2.108626198083067005e-01 5.603910367746048893e-01
1.102364289960501065e+00 1.744372504095847640e-03 1.966101694915254328e-01 5.547734927587466558e-01
1.108625070827478076e+00 1.829094711995288541e-03 2.214983713355048733e-01 5.908080071984264103e-01
1.114924075445366869e+00 1.842999932655674591e-03 2.337662337662337608e-01 6.329753421537579472e-01
1.121282665432693726e+00 1.762017027877181303e-03 3.206106870229007422e-01 7.449302261939203529e-01
1.127553932619258736e+00 1.851826979229859085e-03 3.048327137546468224e-01 7.791630009847870797e-01
1.133905639228342421e+00 1.803927404845938115e-03 3.137254901960784270e-01 7.801852124863629667e-01
1.140144523104706709e+00 1.820967272376473748e-03 2.952755905511810774e-01 7.714124643498967426e-01
1.146455214771981312e+00 1.831860927088285957e-03 3.107569721115537864e-01 7.834740113645803916e-01
1.152869066430118439e+00 1.902391342003174283e-03 2.934362934362934605e-01 7.029784345958736136e-01
1.159252377890596986e+00 1.791659613503928782e-03 3.236514522821576922e-01 7.318448188635361396e-01
1.165575291556828930e+00 1.872439892399787795e-03 2.788844621513943967e-01 7.646496792116902474e-01
1.171828433925186763e+00 1.747387590499659572e-03 3.160173160173160301e-01 8.276780049367475911e-01
1.178029580193284076e+00 1.845903894892485285e-03 2.962962962962962798e-01 7.113511254759476987e-01
1.184400904434957269e+00 1.829516060217846983e-03 2.468619246861924743e-01 6.360245527227013085e-01
1.190737654720273042e+00 1.816225366119703435e-03 2.194092827004219537e-01 6.324893107359744748e-01
1.196977477342464180e+00 1.780548390738201196e-03 2.620087336244541487e-01 7.133826325471488428e-01
1.203312963818603976e+00 1.874247930763579166e-03 1.942148760330578428e-01 6.167969638692658574e-01
1.209645773529357093e+00 1.750259837788138012e-03 1.858407079646017812e-01 5.736875401190422163e-01
1.215952225700388523e+00 1.837678281197498587e-03 1.864406779661016977e-01 6.036016577330124422e-01
1.222254898926581568e+00 1.775628514659025698e-03 2.209737827715355929e-01 6.306275353857516697e-01
1.228537298751265050e+00 1.780223345631782141e-03 1.920289855072463692e-01 5.805247899237602205e-01
1.234759587745337228e+00 1.795376270296014523e-03 1.648745519713261665e-01 5.170243131256475611e-01
1.241110555825225781e+00 1.895169703334604900e-03 1.979865771812080455e-01 5.661502472204870129e-01
1.247523323486311897e+00 1.874537877840588536e-03 1.824324324324324287e-01 5.585063365590627882e-01
1.253854431820907944e+00 1.857283623330970761e-03 1.610738255033556943e-01 5.688488617561635596e-01
1.260138295168494293e+00 1.856490137450314505e-03 1.528239202657807327e-01 5.796175952909784490e-01
1.266501421045549414e+00 1.881588491645209797e-03 1.543408360128617485e-01 6.021023743148772311e-01
1.272807251993681055e+00 1.824447191781883651e-03 1.475409836065573743e-01 5.625125039668488203e-01
1.279100636071537789e+00 1.831925956271344968e-03 1.114649681528662450e-01 4.342435808677531095e-01
1.285385940199903265e+00 1.796864974607813087e-03 1.089743589743589758e-01 4.098305080943724921e-01
1.291734086560349049e+00 1.833790085687247952e-03 1.104294478527607370e-01 4.149616336953583784e-01
1.297999116585571544e+00 1.712347548001254965e-03 1.359223300970873738e-01 4.841406642061032439e-01
1.304332283077917598e+00 1.862331657852500611e-03 1.386430678466076816e-01 5.054931844498393723e-01
1.310629912671008812e+00 1.689758514739712848e-03 1.474358974358974395e-01 5.106725850795925670e-01
1.316859893871710430e+00 1.807323329610554348e-03 1.492537313432835688e-01 5.316450593646133704e-01
1.323169508333509325e+00 1.772103529485381237e-03 1.580547112462006021e-01 5.511502471315811169e-01
1.329416719622044551e+00 1.761213072716576004e-03 1.419939577039275036e-01 5.169871992478742850e-01
1.335676763851219473e+00 1.808340606324402439e-03 1.190476190476190410e-01 4.410388941153024489e-01
1.342102166253144047e+00 1.916040745002256648e-03 9.577464788732394096e-02 3.930359859513218312e-01
1.348432554966731090e+00 1.804515701739407276e-03 1.087613293051359481e-01 4.192979079031571854e-01
1.354697325729501189e+00 1.895450207138361931e-03 1.218130311614730871e-01 4.574961189365190362e-01
1.361035554581970564e+00 1.836151892644552735e-03 1.162790697674418589e-01 4.621270220752943803e-01
1.367445372286436589e+00 1.911657172750392099e-03 1.013698630136986301e-01 4.358920468701812378e-01
1.373833054624600258e+00 1.794265400870382644e-03 8.695652173913043237e-02 3.630716816260113888e-01
1.380048052911932777e+00 1.791287036868802413e-03 7.407407407407406996e-02 3.296728420089481415e-01
1.386332670155489666e+00 1.806335848089170130e-03 8.988764044943819975e-02 3.484052074991832448e-01
1.392624520144640332e+00 1.796075039907524609e-03 1.055555555555555552e-01 3.730298038600953769e-01
1.398923000198597277e+00 1.771229759338340285e-03 9.550561797752808724e-02 3.779316663114636321e-01
1.405184482923453881e+00 1.808998902686751115e-03 7.065217391304347283e-02 3.137851645467054085e-01
1.411475199677901360e+00 1.734371386327675756e-03 8.707865168539326295e-02 3.368210626263728469e-01
1.417706081410672780e+00 1.817237095201347432e-03 8.064516129032257841e-02 3.579409842124539609e-01
1.424046144262549829e+00 1.816956160244514703e-03 9.214092140921409380e-02 3.859291733098730304e-01
1.430457268966005335e+00 1.925855730949348329e-03 1.748071979434447365e-01 4.599315857747635072e-01
1.436865665354877475e+00 1.843763745384080412e-03 2.580645161290322509e-01 5.761474548223155523e-01
1.443084111958556903e+00 1.831535442318516687e-03 2.849462365591398094e-01 6.003597603366045421e-01
1.449466238371406979e+00 1.910439897345804971e-03 2.911392405063291111e-01 6.117212209062492523e-01
1.455780432464144347e+00 1.769262236301017126e-03 3.459459459459459651e-01 6.739654030435361376e-01
1.462109939136078340e+00 1.873282905934200038e-03 3.809523809523809312e-01 6.981468317533157109e-01
1.468414112563870999e+00 1.734923018383166060e-03 4.213333333333333375e-01 7.656816861101238825e-01
1.474680891373796765e+00 1.804015195942032307e-03 4.543147208121827152e-01 7.903799441279946159e-01
1.480924591063775386e+00 1.742163032935032654e-03 5.221932114882507081e-01 8.428528437539517526e-01
1.487138550370334267e+00 1.742602934721402272e-03 5.449871465295629269e-01 9.027346515511709413e-01
1.493462591150057195e+00 1.833511633313982111e-03 6.163366336633663289e-01 1.029453035166044694e+00
1.499809278721849770e+00 1.805357266360340307e-03 6.725440806045339670e-01 1.074203207207931277e+00
1.506175762378094918e+00 1.888906516140883814e-03 7.628361858190708666e-01 1.145585708993887009e+00
1.512543466733061504e+00 1.879653113941155348e-03 7.696078431372549433e-01 1.157999400057877715e+00
1.518927121842702510e+00 1.865813122140227640e-03 8.161764705882352811e-01 1.244625122477339474e+00
1.525176469146275027e+00 1.826629940430822378e-03 9.354838709677418818e-01 1.378007034051753399e+00
1.531416651941075235e+00 1.798854978931840659e-03 9.480198019801979736e-01 1.416711115667675935e+00
1.537728221615372926e+00 1.856986876758172280e-03 1.014184397163120588e+00 1.459402609423754882e+00
1.544096010846849332e+00 1.769518617434322075e-03 9.927007299270073082e-01 1.446508341420739141e+00
1.550405005344789089e+00 1.809055686031393537e-03 1.063829787234042534e+00 1.551587630085491165e+00
1.556696834359960313e+00 1.740139413919524446e-03 1.145631067961164984e+00 1.632800743934759158e+00
1.562969221032702194e+00 1.804120915253569534e-03 1.134433962264151052e+00 1.602232889251456793e+00
1.569251838380229191e+00 1.803338776033149233e-03 1.233890214797136009e+00 1.695362655189912804e+00
1.575556094315494926e+00 1.863019847936644557e-03 1.279720279720279796e+00 1.709505365226233531e+00
1.581892448177514066e+00 1.865480693804838323e-03 1.268518518518518601e+00 1.690195289485236785e+00
1.588269483401412163e+00 1.861295980786164313e-03 1.311059907834101423e+00 1.695968364106835935e+00
1.594574325321363339e+00 1.830133252637398044e-03 1.254629629629629539e+00 1.645170661508089660e+00
1.600916934751582588e+00 1.832077894544300927e-03 1.293849658314350837e+00 1.702461867244278837e+00
1.607201343968552854e+00 1.780442356845074459e-03 1.317129629629629539e+00 1.724597625085321217e+00
1.613445462524496721e+00 1.775524639999344866e-03 1.380733944954128489e+00 1.768855756122923895e+00
1.619730849749851931e+00 1.787630240083115185e-03 1.399548532731377026e+00 1.790165924337045578e+00
1.625979803600224649e+00 1.755895091839796123e-03 1.390804597701149392e+00 1.760978060910485699e+00
1.632226613292544926e+00 1.821174808670054370e-03 1.393736017897091672e+00 1.749462171664489141e+00
1.638606704061473573e+00 1.894452323361247963e-03 1.466377440347071515e+00 1.778514349768778091e+00
1.645050487946952522e+00 1.887301666918968484e-03 1.345652173913043370e+00 1.655942498293937470e+00
1.651415996904310735e+00 1.851783837096881687e-03 1.344298245614035103e+00 1.687342893066243965e+00
1.657788871265904573e+00 1.852242853945953917e-03 1.421166306695464288e+00 1.785648170186756145e+00
1.664006124760511351e+00 1.741113674427757210e-03 1.408163265306122458e+00 1.788054831519994448e+00
1.670281873961185770e+00 1.842366346193471905e-03 1.458773784355179792e+00 1.836271191044452245e+00
1.676541801276667298e+00 1.721555322686186195e-03 1.515695067264573925e+00 1.869573360599849687e+00
1.682793682471841024e+00 1.824670227224382997e-03 1.573839662447257481e+00 1.933214814210651555e+00
1.689107465299970467e+00 1.791603935857043455e-03 1.546637744034707218e+00 1.896333902433031682e+00
1.695415952935033443e+00 1.877357617877282179e-03 1.624217118997912213e+00 1.928786057231113515e+00
1.701806617780016628e+00 1.875253898477295287e-03 1.622129436325678409e+00 1.973851801441221854e+00
1.708145235544118012e+00 1.851238026496159058e-03 1.717894736842105363e+00 2.040596295448274144e+00
1.714469347376187613e+00 1.845626368464784459e-03 1.699792960662525942e+00 2.018121716713703773e+00
1.720739519194126599e+00 1.771881702320935673e-03 1.730769230769230838e+00 2.022209849612824240e+00
1.726990948287859817e+00 1.820993782645452704e-03 1.691836734693877631e+00 2.035480780429246295e+00
1.733361150263370787e+00 1.784216608021570085e-03 1.807851239669421517e+00 2.376250439211564203e+00
1.739571674833123582e+00 1.760427731239605715e-03 2.153039832285115196e+00 5.040710810594992708e+00
1.745887440247851030e+00 1.853392121839796862e-03 2.438877755511021928e+00 7.492324014407745203e+00
1.752250177420427102e+00 1.860925844240075020e-03 2.321862348178137747e+00 4.930313108325817595e+00
1.758607387389414800e+00 1.864192030273802104e-03 1.961999999999999966e+00 2.414224513171879138e+00
1.764972322429467777e+00 1.851098948525789619e-03 1.919999999999999929e+00 2.186650406443610084e+00
1.771273520234028620e+00 1.808016239517707931e-03 1.909274193548387011e+00 2.188140050557382921e+00
1.777586992161852564e+00 1.807004964737956481e-03 1.920792079207920722e+00 2.199348452235689422e+00
1.783840233931820451e+00 1.746107465683986813e-03 1.995926680244399121e+00 2.237428231638429299e+00
1.790071520275328565e+00 1.795583184790444783e-03 2.003937007874015741e+00 2.244852406891069574e+00
1.796393698957722052e+00 1.819993601147859141e-03 2.079051383399209474e+00 2.260206099616131503e+00
1.802712928873270393e+00 1.883216042231023422e-03 2.116858237547892596e+00 2.305244938302482005e+00
1.809114577024696358e+00 1.850157529878445435e-03 2.048449612403100861e+00 2.260992617176576847e+00
1.815345782948464493e+00 1.803540499391122600e-03 2.100790513833992179e+00 2.275475224789980100e+00
1.821700705453981772e+00 1.863872113208649628e-03 2.063432835820895317e+00 2.257618410812467502e+00
1.828034416566336029e+00 1.759461126105644731e-03 2.135826771653543510e+00 2.285594987719584026e+00
1.834289862490237510e+00 1.817049905439401892e-03 2.084745762711864625e+00 2.266297405299399159e+00
1.840620947190598100e+00 1.780340576699249600e-03 2.067307692307692513e+00 2.259472172221071773e+00
1.846876290479544158e+00 1.833628160635640113e-03 2.170132325141776786e+00 2.277056694321383468e+00
1.853225331533147280e+00 1.864396810776891523e-03 2.144444444444444375e+00 2.311355934326007944e+00
1.859586416204100923e+00 1.843230203276794224e-03 2.170093457943925053e+00 2.291671874208315973e+00
1.865884580336470755e+00 1.827085395033201023e-03 2.266294227188081933e+00 2.346670933213313326e+00
1.872200528994375501e+00 1.799198018262535481e-03 2.275925925925926130e+00 2.376646783056516998e+00
1.878453452628845000e+00 1.760356359008985331e-03 2.282485875706214529e+00 2.324806698531365345e+00
1.884712324747962020e+00 1.805687576808031941e-03 2.206204379562043627e+00 2.312259105420599425e+00
1.891113706724730337e+00 1.861939656346446982e-03 2.320143884892086117e+00 2.360242691297637752e+00
1.897400945427566432e+00 1.833350088909791505e-03 2.365808823529411686e+00 2.390456612847549511e+00
1.903772875545957088e+00 1.875180743362649160e-03 2.322183098591549477e+00 2.365525086892742657e+00
1.910018917854334752e+00 1.739883276586547947e-03 2.359168241965973412e+00 2.377476701763059808e+00
1.916236012056648175e+00 1.833205283437960029e-03 2.333333333333333481e+00 2.429713722217045291e+00
1.922638163561010805e+00 1.793373418488206777e-03 2.375000000000000000e+00 2.458086145764627251e+00
1.928888348891847349e+00 1.792288115248428593e-03 2.458633093525179891e+00 2.479595578769429043e+00
1.935240631371640818e+00 1.865766417879262265e-03 2.493079584775086399e+00 2.522207729414476685e+00
1.941608872090050619e+00 1.856644915843207438e-03 2.562390158172231924e+00 2.591929321767620920e+00
1.947917338414854704e+00 1.837601359788319485e-03 2.565674255691768657e+00 2.591530354655721791e+00
1.954236834815996637e+00 1.805754229573221887e-03 2.533216783216783341e+00 2.562813036619720375e+00
1.960488135501994522e+00 1.772905664188001006e-03 2.608849557522123774e+00 2.616883440504313096e+00
1.966755922696415082e+00 1.810201296061439468e-03 2.659208261617900249e+00 2.676210760483946238e+00
1.973091583736556354e+00 1.814240900008777741e-03 2.687931034482758719e+00 2.700320366777658077e+00
1.979420480567132490e+00 1.865397302840512408e-03 2.869269949066214132e+00 2.746753927996266498e+00
1.985762243830389018e+00 1.849873766110382307e-03 2.757627118644067732e+00 2.696858908938306154e+00
1.992143605840229093e+00 1.840662096304069391e-03 2.747068676716918123e+00 2.704780320286038098e+00
1.998372952698491245e+00 1.738412627792555948e-03 2.727592267135324988e+00 2.716060543258410842e+00
2.004614638405731508e+00 1.821010887715033720e-03 2.697019867549669048e+00 2.673840547023919267e+00
2.010981699228176822e+00 1.807963355431743604e-03 2.737373737373737459e+00 2.680446617381595065e+00
2.017216781415232862e+00 1.822968187424302972e-03 2.875210792580101149e+00 2.736192012187873335e+00
2.023555507756473748e+00 1.866836436713831520e-03 2.804878048780487632e+00 2.738877060231231120e+00
2.029945947492921121e+00 1.842053164818473936e-03 2.820723684210526105e+00 2.718201201496019959e+00
2.036236367431154548e+00 1.802040352124230577e-03 2.808264462809917372e+00 2.669251587357311273e+00
2.042538823796997693e+00 1.786279422623429517e-03 2.806239737274220047e+00 2.632355993542971451e+00
2.048720173306640469e+00 1.747373060808409071e-03 2.844067796610169285e+00 2.690377802555362852e+00
2.055017041239767028e+00 1.892889576395914968e-03 2.996870109546165839e+00 2.767741351975941289e+00
2.061465280497128294e+00 1.850343878148330047e-03 2.961538461538461675e+00 2.775244982700434626e+00
2.067778354784032935e+00 1.826644103880053095e-03 2.953301127214170485e+00 2.784416906673886860e+00
2.074107962816127415e+00 1.810449409964311413e-03 2.890476190476190421e+00 2.727384156774459001e+00
2.080392027050733006e+00 1.757304311173108879e-03 2.895765472312703537e+00 2.727058513548938912e+00
2.086560915145909245e+00 1.789004268885935290e-03 2.930307941653160331e+00 2.734299085719506639e+00
2.092907509218693285e+00 1.897916204239676529e-03 2.958841463414634276e+00 2.691123496277883831e+00
2.099341076602548206e+00 1.841856996552926774e-03 2.926562500000000178e+00 2.700831758458863696e+00
2.105598503643897335e+00 1.780460926307301031e-03 2.929712460063897961e+00 2.724822900920059965e+00
2.111872942412509335e+00 1.813036870717739954e-03 2.945987654320987748e+00 2.709168120793084000e+00
2.118179840511383194e+00 1.773074262998883873e-03 2.970078740157480190e+00 2.712293847110932354e+00
2.124489700938873238e+00 1.854176769044688739e-03 3.027522935779816571e+00 2.736247824321399236e+00
2.130866139955553962e+00 1.876679961187130126e-03 3.000000000000000000e+00 2.705124849957538213e+00
2.137196345481136905e+00 1.803165093871285981e-03 3.017027863777089980e+00 2.720131837931941909e+00
2.143477781291089013e+00 1.808033309626025679e-03 2.990839694656488579e+00 2.740963188888836832e+00
2.149749346762158453e+00 1.787076492040512573e-03 2.964669738863287218e+00 2.687843736809577333e+00
2.156014428448592479e+00 1.811767013668930289e-03 2.989345509893455155e+00 2.670064833717415542e+00
2.162388958755252943e+00 1.899773100682969557e-03 3.049635036496350260e+00 2.747091904641770110e+00
2.168776559916051561e+00 1.828625003914755194e-03 2.996996996996997176e+00 2.734220629162068317e+00
2.175079146577416189e+00 1.799027495536281414e-03 2.953731343283581889e+00 2.641946196641384415e+00
2.181358965593887422e+00 1.775037425494343461e-03 2.944277108433734913e+00 2.628012479718264682e+00
2.187625576602315824e+00 1.830837683859201127e-03 3.013313609467455745e+00 2.662442457395317597e+00
2.193923842198696850e+00 1.837507381709080519e-03 3.051395007342144083e+00 2.638874790731949638e+00
2.200310743338333541e+00 1.859271066102410235e-03 3.024390243902439046e+00 2.702782921004569516e+00
2.206637920896229677e+00 1.789161753318371274e-03 3.035555555555555340e+00 2.737444664679284489e+00
2.212855268310565560e+00 1.778695396750237757e-03 3.048600883652429872e+00 2.711032598332972388e+00
2.219155297956861617e+00 1.826812665150635666e-03 3.107913669064748419e+00 2.710495027257977085e+00
2.225534449623195243e+00 1.883537061579874895e-03 3.111424541607898497e+00 2.692859723768854074e+00
2.231816049321749151e+00 1.789850136339156059e-03 3.033773861967694607e+00 2.671780240770774917e+00
2.238124350048766420e+00 1.838516226422660244e-03 3.016759776536312998e+00 2.624768051060677898e+00
2.244461256680506001e+00 1.769483755913013904e-03 3.083936324167872556e+00 2.700221256283161342e+00
2.250672411056880762e+00 1.815340560525242463e-03 3.193687230989957104e+00 2.775700542605418875e+00
2.256976265699253581e+00 1.875232856265233962e-03 3.147790055248618657e+00 2.715907267328691699e+00
2.263404067221236105e+00 1.844596500685106652e-03 3.067493112947658584e+00 2.705661936744567786e+00
2.269740131332425914e+00 1.784620609829179342e-03 3.049504950495049549e+00 2.700598925578580722e+00
2.275928662030326066e+00 1.770462641505800294e-03 3.091168091168090992e+00 2.698859210898433503e+00
2.282234771450446509e+00 1.859120215862977580e-03 3.235772357723577297e+00 2.719549665343153233e+00
2.288651494096741512e+00 1.861574731480084791e-03 3.128900949796472375e+00 2.685678210451470704e+00
2.294929189507614264e+00 1.787386468760323059e-03 3.091292134831460814e+00 2.674829959777444977e+00
2.301123790424945526e+00 1.773889529887621910e-03 3.091666666666666785e+00 2.626531740048363428e+00
2.307427473574251042e+00 1.823767960867003161e-03 2.936400541271989351e+00 2.493007060349279325e+00
2.313824548022820782e+00 1.807223345639351721e-03 2.823179791976226038e+00 2.519694070629379556e+00
2.320154992066300714e+00 1.861695907969135875e-03 2.710059171597633210e+00 2.534928093469369426e+00
2.326479049872378635e+00 1.797363522119922990e-03 2.627118644067796716e+00 2.440158950122317538e+00
2.332811122143054305e+00 1.834923033436536115e-03 2.585106382978723527e+00 2.437148898861565272e+00
2.339146829363451641e+00 1.809933127175767861e-03 2.613814756671899442e+00 2.498229277114669244e+00
2.345346999874724947e+00 1.788822558822959720e-03 2.487138263665594984e+00 2.443537392992660262e+00
2.351591514044208964e+00 1.821961582186779451e-03 2.474015748031495932e+00 2.416086272248107125e+00
2.357940827546205931e+00 1.821480796874143165e-03 2.400316455696202667e+00 2.379408052238592308e+00
2.364269371024037891e+00 1.822839816105960298e-03 2.366987179487179294e+00 2.352483317972994925e+00
2.370575565839220911e+00 1.828742917233826173e-03 2.334405144694533973e+00 2.324474194614347677e+00
2.376891771469677561e+00 1.815523241845057745e-03 2.304207119741100485e+00 2.303477485293993876e+00
2.383240749019818416e+00 1.833462819707767054e-03 2.268488745980707488e+00 2.297220068971383977e+00
2.389601619010945921e+00 1.828185711102788165e-03 2.228013029315961013e+00 2.249251120007542681e+00
2.395961259100775731e+00 1.812604844355751544e-03 2.181240063593004930e+00 2.120203320189166352e+00
2.402160007896914973e+00 1.807533258736503850e-03 2.325373134328358127e+00 2.199523024905779334e+00
2.408453972146052724e+00 1.793232887210479852e-03 2.409356725146198919e+00 2.230762291263486574e+00
2.414771780432101167e+00 1.830638750947721858e-03 2.502152080344332674e+00 2.301751851063340126e+00
2.421058800843912895e+00 1.849123668637423033e-03 2.606789250353606757e+00 2.393796260896630113e+00
2.427397847212681370e+00 1.833909450969152099e-03 2.568055555555555536e+00 2.344980849641460807e+00
2.433701938443864954e+00 1.777285794113256248e-03 2.521800281293952395e+00 2.298392361750508872e+00
2.440001432560962691e+00 1.835928632076300280e-03 2.607387140902872602e+00 2.337737601867393877e+00
2.446276920633820851e+00 1.825543246774167941e-03 2.598349381017881488e+00 2.306416016234396960e+00
2.452612917458465880e+00 1.850886418197054181e-03 2.543766578249337051e+00 2.278838025110537124e+00
2.458937188373468086e+00 1.764090576915684772e-03 2.568493150684931337e+00 2.321915787771378525e+00
2.465235494564519847e+00 1.842465198645606636e-03 2.649933949801849487e+00 2.320684779891187155e+00
2.471581205305689810e+00 1.856761058240425245e-03 2.688157894736842302e+00 2.325426270755584834e+00
2.477865992864338285e+00 1.798850075022648308e-03 2.675099866844207863e+00 2.331798214387114321e+00
2.484122936716935737e+00 1.780971833254360159e-03 2.688243064729194387e+00 2.341152604373061941e+00
2.490467721662181333e+00 1.849468727863495983e-03 2.756066411238824898e+00 2.365450756392274645e+00
2.496849546734450254e+00 1.852734310658727887e-03 2.712643678160919336e+00 2.360557511281364373e+00
2.503105859710241798e+00 1.772860352036017325e-03 2.630606860158311466e+00 2.285436433931503419e+00
2.509322203788900918e+00 1.804578376445024500e-03 2.698717948717948900e+00 2.298521664221192751e+00
2.515643032193938478e+00 1.830400595634155535e-03 2.777078085642317173e+00 2.308761076174153271e+00
2.522012436559997628e+00 1.844427975373299751e-03 2.702233250620347249e+00 2.311165640347091266e+00
2.528376527697731913e+00 1.805263014170996501e-03 2.688442211055276587e+00 2.324606767024789633e+00
2.534662305746367750e+00 1.817191430107880853e-03 2.720403022670025095e+00 2.345650853605868669e+00
2.540923642722284104e+00 1.847774197163838152e-03 2.804455445544554504e+00 2.360438271060501858e+00
2.547222087144660030e+00 1.810867478977307979e-03 2.809405940594059459e+00 2.414748905830172543e+00
2.553540685742163419e+00 1.807658101810726481e-03 2.783353733170134792e+00 2.375784857625732105e+00
2.559925401613222018e+00 1.856915584780679824e-03 2.832335329341317376e+00 2.331599970167006930e+00
2.566280305514876403e+00 1.838802799104265022e-03 2.806295399515738698e+00 2.362902747438488049e+00
2.572544852388987113e+00 1.785952156998167010e-03 2.766871165644171793e+00 2.339438449907491613e+00
2.578799894204640619e+00 1.806472379669163885e-03 2.806529625151148899e+00 2.330558072791184543e+00
2.585123793491197919e+00 1.855120447360665906e-03 2.898942420681551280e+00 2.381925671950567924e+00
2.591472256141813091e+00 1.805120360344933915e-03 2.854588796185935529e+00 2.368122227987307316e+00
2.597744265483155957e+00 1.788819714346394623e-03 2.852517985611510820e+00 2.351516738507677839e+00
2.604038454996993934e+00 1.850630787333012181e-03 2.905594405594405405e+00 2.345023680493041773e+00
2.610374414453144443e+00 1.837105816396599096e-03 2.880093131548311813e+00 2.367201598072087965e+00
2.616634120485421100e+00 1.761050173804210722e-03 2.887828162291169232e+00 2.336884815073950072e+00
2.622940397920966227e+00 1.848634675493098997e-03 2.935153583617747586e+00 2.338343128554890793e+00
2.629323187355575353e+00 1.839581463337864892e-03 2.989726027397260122e+00 2.364090483272191623e+00
2.635681273538560632e+00 1.815290224604702678e-03 2.923253150057273597e+00 2.346497283357956931e+00
2.641934789831782204e+00 1.778405014700361417e-03 2.908450704225352013e+00 2.351147858120348655e+00
2.648176773767660031e+00 1.853093332118325998e-03 3.030439684329199412e+00 2.370717777941205640e+00
2.654514065851063087e+00 1.823524830511773481e-03 3.028248587570621542e+00 2.403228063053719943e+00
2.660817448321032508e+00 1.798052776896779401e-03 3.001137656427758760e+00 2.375931647699331961e+00
2.667123571907564994e+00 1.844852426740933296e-03 3.097777777777777963e+00 2.403352596624905413e+00
2.673472329675100401e+00 1.839448802019330543e-03 3.062015503875969102e+00 2.430333672110208898e+00
2.679761377760365715e+00 1.786299887381436651e-03 3.030542986425339258e+00 2.371876579725222811e+00
2.686129035698236578e+00 1.877272974428747035e-03 3.055143160127253399e+00 2.403644215161429898e+00
2.692300573720700196e+00 1.798376592015874225e-03 3.062850729517396342e+00 2.354054984657957039e+00
2.698561328278970439e+00 1.798779619418457414e-03 3.171037628278221110e+00 2.329601145601993384e+00
2.704947056964875252e+00 1.860594623228957294e-03 3.210112359550561845e+00 2.283531441421183583e+00
2.711339925705444909e+00 1.826229981736538378e-03 3.265046296296296280e+00 2.273429821501462555e+00
2.717643416720191052e+00 1.774618570520191145e-03 3.257756563245823411e+00 2.298588946348307349e+00
2.723934694222051256e+00 1.823763048442502126e-03 3.370720188902006864e+00 2.278425216025763866e+00
2.730274673678132036e+00 1.841398355898408350e-03 3.409681227863046171e+00 2.202352047184906070e+00
2.736591263199737778e+00 1.788312012670147501e-03 3.352439024390243993e+00 2.213180461979395108e+00
2.742885231028380222e+00 1.844652457607765493e-03 3.425659472422062368e+00 2.193656799044350514e+00
2.749161241756704843e+00 1.804773587711254630e-03 3.434889434889434767e+00 2.181416945198928925e+00
2.755398232824302962e+00 1.776157869081165970e-03 3.465923172242874717e+00 2.141893107689883724e+00
2.761751565609168679e+00 1.857903093933079139e-03 3.485065710872162548e+00 2.059609985900832552e+00
2.768124311574730267e+00 1.813883183384283311e-03 3.465030674846625747e+00 2.008637301680678444e+00
2.774423663616722546e+00 1.776295681999270643e-03 3.448189762796504354e+00 1.962045629523724077e+00
2.780754869867226198e+00 1.842436817654598789e-03 3.507917174177832109e+00 1.965818272517262155e+00
2.787077464795406190e+00 1.805278297034774168e-03 3.459999999999999964e+00 1.937195137305480541e+00
2.793346642012575654e+00 1.793644434711254678e-03 3.499369482976040224e+00 1.940394603146451402e+00
2.799634253246212179e+00 1.838111547031318375e-03 3.568238213399503866e+00 1.892690372000544352e+00
2.805924842988945844e+00 1.808245895551135627e-03 3.483585858585858563e+00 1.803920464697599479e+00
2.812167973206011862e+00 1.789098639402584082e-03 3.529411764705882248e+00 1.835412154378544880e+00
2.818496662748549042e+00 1.874446068014908040e-03 3.567237163814180878e+00 1.771262445765040994e+00
2.824858807967614460e+00 1.791571154666717633e-03 3.550318471337579496e+00 1.757173736413326193e+00
2.831150482550185643e+00 1.815112775054883139e-03 3.575949367088607556e+00 1.715351013029396521e+00
2.837475400148095517e+00 1.850316795954077458e-03 3.549190535491905329e+00 1.671814609979654476e+00
2.843805018276897911e+00 1.786824753329564535e-03 3.490372272143773991e+00 1.659828224835478094e+00
2.850131561922547352e+00 1.845583173970813699e-03 3.528089887640449618e+00 1.612662931955879175e+00
2.856484494638581229e+00 1.841115527677602507e-03 3.485678704856787213e+00 1.624098939303257438e+00
2.862782859862781137e+00 1.780809355167121575e-03 3.436224489795918213e+00 1.661481178145304938e+00
2.869068523143336158e+00 1.847699945098150954e-03 3.512883435582822234e+00 1.654563352166878110e+00
2.875378514069953706e+00 1.802909528894259443e-03 3.491885143570536698e+00 1.584762468989304951e+00
2.881671995666307051e+00 1.819305449905813353e-03 3.427329192546583858e+00 1.515315635265521488e+00
2.887980092673573917e+00 1.848812746508326317e-03 3.452205882352941124e+00 1.470122475262588990e+00
2.894292086458025270e+00 1.795011172749967111e-03 3.443467336683417201e+00 1.473339068890419545e+00
2.900588101801901963e+00 1.834444505730529681e-03 3.484548825710754194e+00 1.497233298948338343e+00
2.906894294921833044e+00 1.834235081131648307e-03 3.451053283767038238e+00 1.451089262271199276e+00
2.913143215321425394e+00 1.775388414920497622e-03 3.368758002560819254e+00 1.335598698644948845e+00
2.919469846096636179e+00 1.902110692867622259e-03 3.380095923261390745e+00 1.336577148958929984e+00
2.925831071463227850e+00 1.799019204260941503e-03 3.336294416243654748e+00 1.372878277234041100e+00
2.932125236913744715e+00 1.849572311535908030e-03 3.373300370828182793e+00 1.365582860648268948e+00
2.938426190430696305e+00 1.829943172517629413e-03 3.369538077403245957e+00 1.360209587271728360e+00
2.944698497868602605e+00 1.792371922793937686e-03 3.314720812182740950e+00 1.306593955949762575e+00
2.951032364443879619e+00 1.872648010744969562e-03 3.333737864077670032e+00 1.277396769356538009e+00
2.957349976869245278e+00 1.772646084934545842e-03 3.341432225063938777e+00 1.234198865274452439e+00
2.963641534615172990e+00 1.843499637433317897e-03 3.370370370370370239e+00 1.208130511335111290e+00
2.969974563050315375e+00 1.835483252247156055e-03 3.404968944099378891e+00 1.205260258056041200e+00
2.976261971728969780e+00 1.784595762971840369e-03 3.293367346938775420e+00 1.196198739945721456e+00
2.982555079221103078e+00 1.856376802478345786e-03 3.271725826193390585e+00 1.167149595898464343e+00
2.988860230475899549e+00 1.767956570045068222e-03 3.265044814340588797e+00 1.128946779091148267e+00
2.995178874680174186e+00 1.856934622757372335e-03 3.288508557457212600e+00 1.126042298469833280e+00
3.001496400543723020e+00 1.797819739674591305e-03 3.244613434727503076e+00 1.130874590340465335e+00
3.007822553902104179e+00 1.849516356328991537e-03 3.248762376237623872e+00 1.118170980894889865e+00
3.014155913686516808e+00 1.844070628166239031e-03 3.257142857142857117e+00 1.131715880454435386e+00
3.020427983220980828e+00 1.780401570183770890e-03 3.230769230769230838e+00 1.123006671494390707e+00
3.026726854870708916e+00 1.864734463497724846e-03 4.656479217603911813e+00 1.962244882081198583e+01
3.033042693621903041e+00 1.790509691971886499e-03 1.229974489795918302e+01 1.132438946167824270e+02
3.039417687211595442e+00 1.892848977299335135e-03 1.416545893719806770e+01 1.492293589315823397e+02
3.045771113053035606e+00 1.809002971513908259e-03 5.998732572877059965e+00 4.530760934399282291e+01
3.052089874155329063e+00 1.844438578281415919e-03 3.343672456575682350e+00 2.287940767440564738e+00
3.058386304167925118e+00 1.824217551217444024e-03 3.220551378446115276e+00 9.684260469886836198e-01
3.064635661305841197e+00 1.781811879387494579e-03 3.207692307692307843e+00 9.292687630201760252e-01
3.070942258104439215e+00 1.879278577764203085e-03 3.243636363636363651e+00 9.245950643702645078e-01
3.077306102136554866e+00 1.789896323379901438e-03 3.296060991105463689e+00 8.813425778877816974e-01
3.083610248093582751e+00 1.842323938384468965e-03 3.230012300123001445e+00 9.207313742023200964e-01
3.089899276602742884e+00 1.781295098450355954e-03 3.123566878980891914e+00 9.403465817349905276e-01
3.096219282790054539e+00 1.849962857272845727e-03 3.203431372549019773e+00 9.084528322609309869e-01
3.102516781183005889e+00 1.793151767743564459e-03 3.223067173637515825e+00 9.034248626199024024e-01
3.108846425703184035e+00 1.844538984569745127e-03 3.317343173431734460e+00 8.992567687117251074e-01
3.115155056293756886e+00 1.812510444856532069e-03 3.160602258469259684e+00 8.266298020147385683e-01
3.121484332076036150e+00 1.832521331068808152e-03 3.091811414392059643e+00 8.096025483467501616e-01
3.127777573742708483e+00 1.818133687887086257e-03 3.089775561097257039e+00 8.625094854096185815e-01
3.134074710556275623e+00 1.800750836428910992e-03 3.134930643127364469e+00 8.739593717045938126e-01
3.140350968701055567e+00 1.840082388152106639e-03 3.105911330049261121e+00 8.780278624697336332e-01
3.146669598331559570e+00 1.795769837056059460e-03 3.085858585858586078e+00 8.174605562623734611e-01
3.152959210157879166e+00 1.842768641532451131e-03 3.095705521472392530e+00 8.000235233095471798e-01
3.159264892205651432e+00 1.791857333635609589e-03 3.079746835443037956e+00 8.011508306311155847e-01
3.165581888857809112e+00 1.858342078644047027e-03 3.104368932038835016e+00 8.200525681533040734e-01
3.171905560319084216e+00 1.782720971754531017e-03 2.996197718631178564e+00 8.303379302557779562e-01
3.178180461481988406e+00 1.828434529921516482e-03 2.936117936117935923e+00 7.611692888302140636e-01
3.184506679420991304e+00 1.810619157308176325e-03 2.941469489414695104e+00 7.462571910093280803e-01
3.190846230582273346e+00 1.831490456789015321e-03 2.935207823960880091e+00 7.822146030344577783e-01
3.197132365687451294e+00 1.780884113596707067e-03 2.892405063291139111e+00 8.118948265764276417e-01
3.203454230992797136e+00 1.862619862555806765e-03 2.940892641737032687e+00 8.078659075565116643e-01
3.209790152929830498e+00 1.796864404628749357e-03 2.828930817610062931e+00 7.536606863864541150e-01
3.216105270782768422e+00 1.849581865447865814e-03 2.841019417475727948e+00 7.735105975661118460e-01
3.222383723154825574e+00 1.773184836801974633e-03 2.836294416243654748e+00 7.679479166452567451e-01
3.228652903688512765e+00 1.829814433570467642e-03 2.838002436053593147e+00 7.120780917903394291e-01
3.234977992221026444e+00 1.801123950508762587e-03 2.797263681592039752e+00 7.268408126212424492e-01
3.241301441286830176e+00 1.830570155328411054e-03 2.764277035236938129e+00 7.032592254056169168e-01
3.247581817024004280e+00 1.774748969754167847e-03 2.763590391908976152e+00 6.798108921983866404e-01
3.253885986942128827e+00 1.868811343678552150e-03 2.784431137724550975e+00 7.422106774591065159e-01
3.260235987169183947e+00 1.804603356501592029e-03 2.801250000000000018e+00 7.584523716094506707e-01
3.266546856392692710e+00 1.857627301288636550e-03 2.802884615384615419e+00 7.325501767554887245e-01
3.272886904023045052e+00 1.792569475559808913e-03 2.758750000000000036e+00 7.063971085727901444e-01
3.279153478698136670e+00 1.837211362056317054e-03 2.710303030303030436e+00 6.701177890786597091e-01
3.285516195699416553e+00 1.819318898053023329e-03 2.735872235872236047e+00 7.225300236472861348e-01
3.291677990232397821e+00 1.824817096246810931e-03 2.672346002621231786e+00 7.617655964462659579e-01
3.298068987764390059e+00 1.863784166448585874e-03 2.571232876712328697e+00 7.740368502852749133e-01
3.304430978840338096e+00 1.814787339162488022e-03 2.613372093023255793e+00 7.410025704114703293e-01
3.310737564052387061e+00 1.817945227602999880e-03 2.517857142857142794e+00 6.817165521556546315e-01
3.317033906120231190e+00 1.800198345421728579e-03 2.479198767334360731e+00 6.573612822158522162e-01
3.323313479518194669e+00 1.810036704891648416e-03 2.465517241379310498e+00 6.802255026144572447e-01
3.329645772824664451e+00 1.853775369266378323e-03 2.450858034321373058e+00 6.785697610540250002e-01
3.335990548707715053e+00 1.826590486813650920e-03 2.521669341894060778e+00 6.703765421227473320e-01
3.342268739174953929e+00 1.807641793864574143e-03 2.510603588907014849e+00 6.921744825490344644e-01
3.348554594221377023e+00 1.807536448754866812e-03 2.429276315789473895e+00 6.922837847607434814e-01
3.354810866618635590e+00 1.798386852034845364e-03 2.494137353433835802e+00 6.646413348597165482e-01
3.361143554435736203e+00 1.860575678898459748e-03 2.440983606557376895e+00 6.437803227843319487e-01
3.367505271257411170e+00 1.829077091643749146e-03 2.319256756756756577e+00 6.326955014194697302e-01
3.373804785089639324e+00 1.803149868685275390e-03 2.310225303292894328e+00 6.684002682287208952e-01
3.380079784639911100e+00 1.805631642174917659e-03 2.321616871704744955e+00 6.608107729084038429e-01
3.386416571036835244e+00 1.843579116849991192e-03 2.290492957746478986e+00 6.464408991884897926e-01
3.392732849186819166e+00 1.821713749179523084e-03 2.275862068965517349e+00 5.815443916562188509e-01
3.399077842768783331e+00 1.840157085703132342e-03 2.295289855072463858e+00 6.471272127561951137e-01
3.405368445234043140e+00 1.771416845865005909e-03 2.261450381679389388e+00 6.787993836386799762e-01
3.411642977450664915e+00 1.840004348347408980e-03 2.204887218045112895e+00 6.205627152470168939e-01
3.417946432239648225e+00 1.816648589106147462e-03 2.141747572815534184e+00 6.086658572174856729e-01
3.424268333461439884e+00 1.838339958730071926e-03 2.172147001934236155e+00 6.217387857124284656e-01
3.430601598134079389e+00 1.799761940178920376e-03 2.258517034068136198e+00 6.454865956539279637e-01
3.436922606236269218e+00 1.844213366763177700e-03 2.220000000000000195e+00 6.693579012755422886e-01
3.443269856433799347e+00 1.834668830692703879e-03 2.243353783231083920e+00 7.096821685265922719e-01
3.449516618902171317e+00 1.769622948488585408e-03 2.224358974358974450e+00 6.498958934819255573e-01
3.455771942280530862e+00 1.817195070858158281e-03 2.164904862579281275e+00 6.683771099162731932e-01
3.462154010515302804e+00 1.866018191136946868e-03 2.050632911392404889e+00 6.107950187521486995e-01
3.468478914699885340e+00 1.799468636805881495e-03 2.108647450110864963e+00 6.554985279659943931e-01
3.474737530089159865e+00 1.798535080277152308e-03 2.085201793721973118e+00 6.402905969189977009e-01
3.481027808853469629e+00 1.828779808500339806e-03 2.106334841628959342e+00 6.203717271366173680e-01
3.487370903609774420e+00 1.855504762412056021e-03 2.076923076923077094e+00 6.155260018575614556e-01
3.493710577164840458e+00 1.791815171782784382e-03 2.002364066193853542e+00 6.541375857474259758e-01
3.499981309375833849e+00 1.817721919481020843e-03 1.952267303102625196e+00 6.313179255075799245e-01
3.506294281862427642e+00 1.840208171226962808e-03 1.954436450839328598e+00 5.670588197676030839e-01
3.512643170548069183e+00 1.819719049123772565e-03 1.933660933660933612e+00 5.930442557631138145e-01
3.518887929185086527e+00 1.780316295825717758e-03 1.961538461538461453e+00 6.084545689898758214e-01
3.525201780775713889e+00 1.871585280235478531e-03 1.915632754342431854e+00 6.921164476994756676e-01
3.531587235286628879e+00 1.812415240060859375e-03 1.833333333333333259e+00 6.105979537397012713e-01
3.537791204901774123e+00 1.765649031450039182e-03 1.784741144414168978e+00 5.665019860025020115e-01
3.544104483213670331e+00 1.881636984785636617e-03 1.898437500000000000e+00 5.326268921581034377e-01
3.550526160049383151e+00 1.823753900979235669e-03 1.871584699453551881e+00 5.840223851672323718e-01
3.556826252644191833e+00 1.805941154371571225e-03 1.853521126760563353e+00 5.963188005442754402e-01
3.563110991539715666e+00 1.831382697511484874e-03 1.869318181818181879e+00 6.212568696927996958e-01
3.569418747584309326e+00 1.819035597463529485e-03 1.851744186046511587e+00 5.986678469017745474e-01
3.575721219182565580e+00 1.815191134896390569e-03 1.875370919881305554e+00 5.677822689294473868e-01
3.582041784633743120e+00 1.836067019019354488e-03 1.933933933933933869e+00 5.863320106118299346e-01
3.588351193306853926e+00 1.816205673054769026e-03 1.928792569659442790e+00 6.375529400026065385e-01
3.594644124218077774e+00 1.816162507538995278e-03 1.914826498422713019e+00 5.960308832106011590e-01
3.600965899690116157e+00 1.832434222657099978e-03 1.904153354632587947e+00 5.737293335906724634e-01
3.607301933810233674e+00 1.823864462282996299e-03 1.832786885245901720e+00 5.380746429808548337e-01
3.613589615564896995e+00 1.801875725405921403e-03 1.779661016949152463e+00 5.350673238763035133e-01
3.619872304563952703e+00 1.819848024125704684e-03 1.804123711340206215e+00 6.081891753810039214e-01
3.626184481674183946e+00 1.827760715362539709e-03 1.719298245614035103e+00 5.533412319074912933e-01
3.632455309189269510e+00 1.797655079431180383e-03 1.835766423357664268e+00 5.649276663033386825e-01
3.638754857574894697e+00 1.841922947680418475e-03 1.854014598540145942e+00 4.908453847723929231e-01
3.645110863435991444e+00 1.833895812584415653e-03 1.793233082706766846e+00 5.394966068850866048e-01
3.651399341121458253e+00 1.797724079201825547e-03 1.686274509803921573e+00 6.025704264237189411e-01
3.657684783062496781e+00 1.823089633617003442e-03 1.611111111111111160e+00 5.756294001779324043e-01
3.663989311092172851e+00 1.817352227903809700e-03 1.577868852459016313e+00 5.398024860992436391e-01
3.670338462676961733e+00 1.852037082036360515e-03 1.681818181818181879e+00 6.434084669141126867e-01
3.676667454351053799e+00 1.802731285318214709e-03 1.746724890829694399e+00 5.800796834246660927e-01
3.682957402673964431e+00 1.831301914300888494e-03 1.747787610619468968e+00 5.082143014287165972e-01
3.689264510226057059e+00 1.810576500315507495e-03 1.580645161290322509e+00 5.448517104254160248e-01
3.695607159299667099e+00 1.851070780809128090e-03 1.590697674418604546e+00 6.454567267870698899e-01
3.701906411334345837e+00 1.786914693256676148e-03 1.537313432835820892e+00 5.964549612742710005e-01
3.708163258087520564e+00 1.825159420261267002e-03 1.527638190954773822e+00 5.357830325733405896e-01
3.714507337749332283e+00 1.833043865117713490e-03 1.647668393782383500e+00 6.344559056567415922e-01
3.720870273368275249e+00 1.842023606415223082e-03 1.647058823529411686e+00 5.291145927685144690e-01
3.727157013165883104e+00 1.785929560704693081e-03 1.605714285714285650e+00 5.313056693521297502e-01
3.733414267292576749e+00 1.823616893326991065e-03 1.610465116279069742e+00 6.028595998518945231e-01
3.739747614563589284e+00 1.832601406324968355e-03 1.692771084337349352e+00 6.161681842145092514e-01
3.746091684029914770e+00 1.828992002129592063e-03 1.716981132075471761e+00 5.933654790006186452e-01
3.752406222021260618e+00 1.812401454337024109e-03 1.662251655629139124e+00 5.110506389594832166e-01
3.758712131096641595e+00 1.823143945980814458e-03 1.627586206896551646e+00 6.298179341699795541e-01
3.765000355804634324e+00 1.809969724265664184e-03 1.496350364963503710e+00 6.025767391989903521e-01
3.771324791207556704e+00 1.846593531196991230e-03 1.360902255639097724e+00 5.205375618246915748e-01
3.777640884128447674e+00 1.800430178895984180e-03 1.536585365853658569e+00 6.123521969967651302e-01
3.783890033752419058e+00 1.812352582976840126e-03 1.521367521367521292e+00 5.899293650166634873e-01
3.790205950757557840e+00 1.839564216382759279e-03 1.508928571428571397e+00 5.303300858899102632e-01
3.796547481197723339e+00 1.823144808823023381e-03 1.423076923076923128e+00 6.563864679183073481e-01
3.802839460639445335e+00 1.822115437231795494e-03 1.371134020618556715e+00 5.744590398249498353e-01
3.809162628389719529e+00 1.835235423465040759e-03 1.472527472527472625e+00 5.756395979652221273e-01
3.815477698903783743e+00 1.813833779597889004e-03 1.361445783132530174e+00 6.063725075740536985e-01
3.821777178949230969e+00 1.830898415393102585e-03 1.493506493506493449e+00 5.434409338417578450e-01
3.828076951026545771e+00 1.795694771849016581e-03 1.449275362318840576e+00 5.181032733831733017e-01
3.834316772867639944e+00 1.791896653628349866e-03 1.467741935483870996e+00 5.806451612903226200e-01
3.840583618544390898e+00 1.820001018717854217e-03 1.821428571428571397e+00 6.818529675727421635e-01
3.846911872181034475e+00 1.824281646184678762e-03 1.591836734693877542e+00 6.914724222896903028e-01
3.853313008086272973e+00 1.880829953221405115e-03 1.046511627906976827e+00 7.306175847630236309e-01
3.859656947796285653e+00 1.787945514535103963e-03 1.058823529411764719e+00 2.941176470588235947e-01
3.865825284683709118e+00 1.773175751446867720e-03 1.296296296296296280e+00 5.749694331948155268e-01
3.872064552013789740e+00 1.858490478498285668e-03 1.476190476190476275e+00 6.441785361175562663e-01
3.878243048288448236e+00 1.738115315901965106e-03 1.615384615384615419e+00 7.174906963914472469e-01
3.884441558101385361e+00 1.990091083924331716e-03 1.142857142857142794e+00 5.345224838248487931e-01
