# q qerr I(q) I(q)err
6.111313073595031620e-02 3.154100855865873791e-03 1.116000000000000000e+03 4.039542053253066456e+02
6.800242608866982619e-02 2.110752812487300123e-03 1.361333333333333258e+03 2.174513994232069933e+02
7.478812129850326285e-02 1.894856213165734514e-03 1.516666666666666742e+03 3.008400584043632762e+02
8.081736842982174818e-02 1.577734731020807597e-03 2.419444444444444343e+03 5.881316620042249497e+02
8.706192866790804508e-02 2.018057842609979804e-03 6.089230769230769511e+03 2.330148980685429706e+03
9.311361532868518698e-02 1.734318039620741251e-03 1.837025000000000000e+04 5.195937872511563910e+03
9.924832822165428892e-02 1.939409616079583844e-03 3.657400000000000000e+04 8.940544523405718792e+03
1.056867454532435108e-01 2.068262530006435406e-03 4.234895833333333576e+04 8.233812917670309616e+03
1.120935416356093062e-01 1.699923986068800717e-03 3.081403846153846098e+04 1.275966277737416021e+04
1.177168722532570266e-01 1.903764278506084144e-03 1.726290625000000000e+04 1.210078117781167202e+04
1.242406998858587575e-01 2.007415885574503726e-03 8.575000000000000000e+03 6.719577412839505087e+03
1.307844605212421796e-01 1.948859987027574741e-03 3.363678571428571558e+03 1.789181055536246276e+03
1.372938405551752672e-01 1.976444694498947011e-03 1.898870967741935374e+03 5.335517133336270490e+02
1.433626874055373979e-01 1.479129257371093872e-03 1.539799999999999955e+03 3.993500619757057848e+02
1.497414395840910573e-01 2.132896554945924294e-03 1.343027027027027088e+03 3.236012728401786944e+02
1.562016171858009728e-01 1.470810848565314282e-03 1.245074074074074133e+03 3.170567729232665215e+02
1.620883487451751925e-01 1.817360580555445800e-03 1.184090909090909008e+03 2.838051411210195170e+02
1.684939590642719198e-01 1.975568076388520972e-03 1.128945945945946050e+03 2.792262880560552958e+02
1.749358117034872373e-01 1.810730169671130639e-03 1.108028571428571468e+03 2.832630781245085814e+02
1.813634234827302405e-01 1.982290824745188643e-03 1.124902439024390333e+03 2.541391261088957663e+02
1.877608813777307539e-01 1.710969833005861022e-03 1.157081081081081038e+03 2.721144352795512873e+02
1.936838392192468117e-01 1.708352888559126238e-03 1.292421052631578959e+03 2.805592011928341662e+02
1.998200724089964908e-01 1.901042836663710675e-03 1.893348837209302246e+03 5.609571371155808492e+02
2.064988844748374130e-01 2.083185659227047067e-03 3.943520833333333485e+03 1.416908206124635399e+03
2.131062600015138364e-01 1.923054290541973939e-03 7.311744680851064004e+03 1.540432452964350887e+03
2.193208008558340527e-01 1.649587748772136844e-03 8.322116279069767188e+03 1.798182444987830422e+03
2.255197753110727010e-01 1.943898002345461392e-03 5.747039215686274474e+03 1.986904918735119281e+03
2.319084130262620835e-01 1.853433278599466881e-03 2.691400000000000091e+03 1.114401250896641841e+03
2.380456302514551703e-01 1.717913041466973250e-03 1.425291666666666742e+03 4.496551272997388651e+02
2.441826744061198484e-01 1.910984005326162374e-03 1.102672727272727343e+03 2.754311259171100801e+02
2.508567628905887248e-01 1.865639566994751813e-03 9.063225806451613380e+02 3.480140864540506414e+02
2.571616352083493928e-01 2.042758540577210586e-03 8.391219512195121979e+02 3.394894283787990048e+02
2.636090936505812721e-01 1.759536909171210452e-03 8.317142857142856656e+02 3.147587290511807510e+02
2.696276322290375727e-01 1.767913466712890637e-03 8.392749999999999773e+02 2.981981142001068292e+02
2.756934411426098519e-01 1.847457432374286813e-03 8.592619047619048160e+02 2.820909491129210096e+02
2.820483295007140123e-01 1.942127748479487680e-03 8.692471910112359410e+02 2.706783780996558448e+02
2.885873542857223528e-01 1.999902870285049771e-03 8.943052631578947285e+02 2.590194963731206599e+02
2.950059364807982032e-01 1.753155416080761590e-03 9.240116279069767415e+02 2.491788607630325316e+02
3.012776628394395750e-01 1.916275679195857595e-03 1.022673684210526289e+03 2.256162918224968621e+02
3.076468654533095481e-01 1.858480647863890167e-03 1.408709677419354875e+03 2.501339828276928188e+02
3.139397285054469910e-01 1.849733180513128640e-03 2.693106382978723559e+03 6.115149486051727763e+02
3.202097007249891103e-01 1.889977811219999311e-03 4.761959183673468942e+03 6.387478646948483174e+02
3.264390569218261762e-01 1.757358001834326191e-03 5.459677419354839003e+03 5.835413761117616787e+02
3.326951465344144543e-01 1.930481388006281569e-03 3.912471153846153811e+03 1.048389214941625369e+03
3.390239669727912464e-01 1.785238221274862988e-03 2.000765306122448919e+03 6.607312613058393254e+02
3.452290355408559885e-01 1.822729964848564038e-03 1.211196078431372598e+03 3.241523981109448869e+02
3.515217579766085620e-01 1.894166946962649433e-03 9.972380952380951840e+02 2.284967497052208216e+02
3.581115149106128270e-01 1.984833837990382030e-03 9.437433628318584624e+02 2.045001958344467141e+02
3.646365217867122976e-01 1.807385512883236643e-03 9.243457943925233167e+02 1.940201972192313633e+02
3.707522342694583029e-01 1.646676631311451595e-03 9.076299999999999955e+02 1.909236742784927685e+02
3.768404479121448269e-01 1.835047814059704218e-03 9.157207207207206920e+02 1.819813885905944346e+02
3.831651369708888866e-01 1.834489868729198949e-03 9.093783783783783292e+02 1.792926413147175992e+02
3.894643253735652899e-01 1.853753096359237081e-03 9.098849557522123632e+02 1.738230559312516448e+02
3.958807651630259494e-01 1.912159574900255954e-03 9.093916666666666515e+02 1.674168943917482295e+02
4.022473572087105209e-01 1.746533598099251966e-03 9.164324324324323925e+02 1.599696388895328028e+02
4.083991683103055381e-01 1.862831917861469243e-03 9.450504201680672622e+02 1.474952996801051768e+02
4.147868792651558945e-01 1.850918924272050396e-03 1.059983471074380077e+03 1.321722501980780180e+02
4.211381020132339281e-01 1.813003092898375071e-03 1.475495867768594962e+03 1.917904707213520226e+02
4.273404438934948479e-01 1.765577699919095717e-03 2.157689075630252319e+03 1.999734685106613483e+02
4.337195733954657406e-01 1.911235613422362228e-03 2.440661538461538385e+03 2.220636043540189064e+02
4.400834723796714920e-01 1.795304431444431784e-03 1.899532258064516100e+03 3.700679362568031934e+02
4.463380503116383125e-01 1.781136916513354146e-03 1.265388888888888914e+03 2.698578010809263219e+02
4.525475293404462862e-01 1.782735370135076804e-03 9.880393700787401485e+02 1.663942013895331797e+02
4.588781844142776345e-01 1.863542184770878652e-03 9.077910447761194064e+02 1.348736263205469186e+02
4.652813857520213814e-01 1.809454061223974295e-03 8.862481203007519071e+02 1.240939814887577342e+02
4.715886271752884884e-01 1.786725641485754782e-03 8.707388059701492011e+02 1.214232328274150206e+02
4.778700308571910971e-01 1.749120838384908864e-03 8.681353383458646249e+02 1.156913738327502728e+02
4.841075358786299798e-01 1.812598873705853009e-03 8.640869565217391255e+02 1.115271151626775321e+02
4.904685449060671165e-01 1.813034819841214708e-03 8.567500000000000000e+02 1.109591623719542781e+02
4.967988078032400945e-01 1.775169993053363985e-03 8.606099290780141473e+02 1.075501583800650565e+02
5.030461340587593089e-01 1.710738770771227935e-03 8.551304347826087451e+02 1.052393676893643288e+02
5.093789740337634209e-01 1.844995629980458740e-03 8.600201342281878851e+02 9.867555675826706363e+01
5.157895609665918979e-01 1.772173611217854692e-03 8.747260273972602818e+02 9.239691653824786499e+01
5.220653538623039047e-01 1.710912446064493482e-03 9.652937062937063502e+02 8.317186511763793533e+01
5.282420832211931483e-01 1.776221308977217429e-03 1.274344594594594582e+03 1.395947747964614791e+02
5.345849814872509764e-01 1.797460663252185451e-03 1.829375000000000000e+03 1.656522792827763908e+02
5.409400198384390901e-01 1.769240412124692928e-03 2.082339869281045594e+03 1.502743170683878304e+02
5.471612929737256215e-01 1.671871176479489780e-03 1.672391891891891873e+03 2.614164853225461798e+02
5.535187503546902255e-01 1.843477994232445120e-03 1.148111111111111086e+03 1.947873818876909979e+02
5.599303633336802921e-01 1.774845713676194252e-03 8.972356687898088694e+02 1.093412095297285163e+02
5.661980099607780703e-01 1.715649351238413218e-03 8.313831168831168270e+02 8.336563881600059744e+01
5.724333289920446877e-01 1.764199560704661452e-03 8.106812499999999773e+02 7.857175959751698713e+01
5.786575496797814466e-01 1.687338640378493104e-03 8.006428571428571104e+02 7.628066766711117452e+01
5.849918082512260975e-01 1.882166412490617838e-03 7.973604651162791015e+02 7.120078927361343801e+01
5.913559560974818163e-01 1.673563701773732749e-03 7.892292993630572937e+02 6.901532067159537576e+01
5.976003341774964728e-01 1.789272139650604403e-03 7.862958579881657215e+02 6.618449660963577230e+01
6.039710484280985670e-01 1.760471037718898532e-03 7.831607142857143344e+02 6.359272483044379243e+01
6.103455122609070527e-01 1.778153705054047679e-03 7.788187134502924209e+02 6.236602945985250557e+01
6.165941547084902163e-01 1.709282904712068618e-03 7.732874251497006526e+02 6.128179199442269720e+01
6.227886440901039267e-01 1.708031916550016484e-03 7.770416666666666288e+02 5.912968747149092508e+01
6.292222757675741684e-01 1.895555695838723603e-03 8.053689839572192568e+02 5.484976608936756293e+01
6.355837393651907474e-01 1.609918394456906487e-03 9.133818181818181756e+02 6.159192820357802844e+01
6.417201133152361514e-01 1.735489606861494215e-03 1.110567415730337189e+03 6.914161734866851816e+01
6.480234646877054416e-01 1.746502386866512820e-03 1.209179775280898866e+03 6.583813258331240093e+01
6.543745591304535036e-01 1.808595843625667669e-03 1.066663043478260761e+03 1.053697364908323379e+02
6.607410482875138991e-01 1.776914150084337417e-03 8.689836956521738784e+02 8.757567953237732183e+01
6.669765730033264672e-01 1.670208017253243388e-03 7.726022727272727479e+02 6.122985574881473525e+01
6.731673103258457580e-01 1.796482171393593615e-03 7.448404255319148888e+02 5.059318625763166466e+01
6.795850853652600776e-01 1.822834825668488831e-03 7.329319371727748376e+02 4.727745038352419016e+01
6.858902177354958551e-01 1.747430487391250960e-03 7.262741935483870748e+02 4.462937520027096383e+01
6.921278880332987216e-01 1.765781770802452586e-03 7.195291005291005604e+02 4.493173063928620792e+01
6.985070946107704293e-01 1.847715388967816497e-03 7.170303030303030027e+02 4.281772787795433999e+01
7.048037128132643714e-01 1.757666077632949074e-03 7.111111111111110858e+02 4.257068679837801284e+01
7.109847861020758275e-01 1.767854622430342420e-03 7.072343750000000000e+02 4.097024374342717579e+01
7.172345948602801835e-01 1.822657136245004524e-03 7.050707070707070443e+02 4.055910270410359431e+01
7.236608500653414211e-01 1.906739358311473767e-03 7.030097560975609667e+02 4.031382927058727716e+01
7.299519259881649402e-01 1.814756391122580772e-03 7.054846938775509670e+02 3.907008608137002170e+01
7.362298620906445601e-01 1.872001608046580190e-03 7.288823529411764639e+02 3.833700273295647776e+01
7.427109241448597299e-01 1.961252361706546793e-03 8.307476635514018426e+02 5.654388426796484879e+01
7.489749171607754663e-01 1.795506848231544564e-03 1.010974358974359006e+03 6.082947354754112013e+01
7.553119902396251417e-01 1.968290517240121971e-03 1.103872146118721503e+03 5.166021283468847258e+01
7.617428847945948434e-01 1.878647625832918257e-03 9.696521739130434980e+02 9.408154055866667420e+01
7.679897535333021219e-01 1.889655825210407886e-03 7.957751196172248456e+02 6.800816886416360774e+01
7.742716946001383382e-01 1.890740870187222538e-03 7.028638497652582373e+02 4.309624099883710358e+01
7.806130493972306406e-01 1.874127862848933099e-03 6.741886792452829695e+02 3.410379837677535164e+01
7.869955317179381238e-01 1.962138593108325030e-03 6.638616071428571104e+02 3.198175899107591746e+01
7.933337815560531636e-01 1.823456314192357453e-03 6.569333333333332803e+02 3.145003596030951698e+01
7.995722808394026826e-01 1.873920736445982161e-03 6.539004524886877334e+02 3.017593287571465765e+01
8.059029702364099990e-01 1.855844282913126459e-03 6.506803652968036431e+02 2.984498045158657220e+01
8.122482529694946551e-01 1.899897789708842157e-03 6.494713656387665424e+02 2.748872698397506653e+01
8.185971333973350861e-01 1.831057107996742058e-03 6.483677130044843580e+02 2.707142315761474194e+01
8.248840800988579414e-01 1.805078930334647752e-03 6.497040358744394553e+02 2.646718675839916202e+01
8.311527541867054225e-01 1.843524136775542745e-03 6.530742358078603047e+02 2.833030474475089378e+01
8.375116084758876811e-01 1.829773299230467044e-03 6.522260869565217263e+02 2.904048669831237817e+01
8.438261475186588090e-01 1.817550564165925373e-03 6.529741379310345337e+02 2.536091370232713516e+01
8.500843452560248314e-01 1.755513946144033992e-03 6.777300884955752736e+02 2.413753599161633545e+01
8.563647400134730692e-01 1.844487251387733453e-03 7.348464730290456828e+02 2.594777438909391876e+01
8.626696591174244366e-01 1.710203360544058351e-03 7.643728070175438916e+02 2.592158250415765863e+01
8.689830853488446083e-01 1.844123492424595270e-03 7.213048780487804379e+02 3.698260627329844397e+01
8.753179752476163422e-01 1.741457950302257533e-03 6.603191489361702224e+02 3.142524957017458931e+01
8.815756228481118617e-01 1.752464905610253906e-03 6.310414937759336453e+02 2.401733697428106851e+01
8.877944678552249780e-01 1.716242394594354789e-03 6.219029535864979152e+02 2.301739123135737231e+01
8.941407927930166144e-01 1.839522330085644050e-03 6.162569169960473801e+02 2.149699467112386486e+01
9.005003621585947471e-01 1.752218829319661820e-03 6.108408163265305575e+02 2.069167560639423087e+01
9.067627482844141662e-01 1.720498064613873055e-03 6.065040983606556892e+02 2.011030035399443605e+01
9.130278025298368405e-01 1.789374596252915357e-03 6.057777777777778283e+02 1.977706437093926084e+01
9.193563827426239898e-01 1.786117629316656989e-03 6.045039682539683099e+02 1.956465674758425521e+01
9.256709965929463824e-01 1.773964252230773864e-03 6.052862745098038886e+02 1.933313606072046653e+01
9.319487846442510159e-01 1.740175819907428248e-03 6.056879999999999882e+02 1.893687957399528088e+01
9.382375230166524194e-01 1.835219923763222079e-03 6.085114503816794240e+02 1.821814139673103483e+01
9.445114335627492475e-01 1.754301698834087597e-03 6.158023715415019979e+02 1.810312149056183273e+01
9.507739483173833772e-01 1.796477233495237351e-03 6.340574712643677913e+02 1.927241645523813318e+01
9.571000001339345920e-01 1.844157663989784944e-03 6.801660377358490450e+02 2.679769494292714782e+01
9.634651872700409347e-01 1.860525514413665987e-03 7.609360902255639303e+02 3.544755999874868735e+01
9.697902983397413967e-01 1.869026222830578836e-03 8.245037593984961859e+02 1.880759325139114324e+01
9.761731987705594138e-01 1.898719003246270758e-03 8.148339483394834133e+02 2.473179837799212777e+01
9.824546988499620603e-01 1.850375251942234242e-03 7.851320754716981583e+02 2.320243232483475637e+01
9.887603507672997338e-01 1.885371791598095068e-03 7.917794117647058556e+02 2.365115220095050574e+01
9.951547945742836854e-01 1.923480157877882840e-03 8.252846975088967838e+02 2.825749098532555692e+01
1.001497743307979915e+00 1.816985016266823736e-03 8.453033707865168935e+02 2.712943937244587289e+01
1.007730073445106012e+00 1.872875193246743668e-03 8.177446043165467700e+02 3.565343836581551074e+01
1.014110590476311025e+00 1.881534321868284657e-03 7.530567375886524815e+02 3.729383749866042308e+01
1.020442888611849064e+00 1.823625195420996601e-03 6.911971326164874654e+02 3.042290655327819238e+01
1.026691701700078063e+00 1.782759485576686145e-03 6.484746376811593791e+02 2.383148090764876770e+01
1.033057845114525142e+00 1.884320384582664851e-03 6.238809523809524080e+02 1.965992455796507343e+01
1.039437792018165441e+00 1.793463056649077922e-03 6.084876325088339399e+02 1.779974930802639221e+01
1.045681248368910410e+00 1.745618337461533540e-03 5.996170212765957785e+02 1.664866992740236640e+01
1.051944871571292683e+00 1.801987856022948175e-03 5.932034482758621152e+02 1.614270412761518259e+01
1.058324809813473877e+00 1.829265674919061668e-03 5.892491582491581994e+02 1.547854074937314195e+01
1.064596602572098316e+00 1.714864743882408334e-03 5.945950704225351728e+02 1.516981669708929203e+01
1.070868750588993112e+00 1.792957436204007347e-03 6.093771043771043878e+02 1.507457795045402094e+01
1.077195490251847465e+00 1.798916779777443367e-03 6.181337792642140130e+02 1.443828784454463587e+01
1.083505800573759448e+00 1.740543057611223946e-03 6.068293515358361674e+02 1.553222972290008208e+01
1.089676915900379850e+00 1.748165881083384946e-03 5.896530612244897611e+02 1.421365939109737830e+01
1.096052400832523421e+00 1.863573573199493825e-03 5.813482428115015637e+02 1.318126148126821029e+01
1.102364289960501065e+00 1.744372504095847640e-03 5.789423728813559364e+02 1.345689448545840072e+01
1.108625070827478076e+00 1.829094711995288541e-03 5.752703583061888821e+02 1.490423617927459965e+01
1.114924075445366869e+00 1.842999932655674591e-03 5.577500000000000000e+02 5.131939394425069167e+01
1.121282665432693726e+00 1.762017027877181303e-03 5.719045801526717696e+02 3.113664289635035587e+01
1.127553932619258736e+00 1.851826979229859085e-03 5.742565055762081556e+02 2.533827332800472831e+01
1.133905639228342421e+00 1.803927404845938115e-03 5.756078431372549176e+02 2.518592761116325818e+01
1.140144523104706709e+00 1.820967272376473748e-03 5.759291338582677326e+02 2.741577320173991339e+01
1.146455214771981312e+00 1.831860927088285957e-03 5.789203187250996052e+02 2.331418242965973064e+01
1.152869066430118439e+00 1.902391342003174283e-03 5.810000000000000000e+02 2.231997910351770642e+01
1.159252377890596986e+00 1.791659613503928782e-03 5.830539419087136821e+02 2.251319140248395456e+01
1.165575291556828930e+00 1.872439892399787795e-03 5.884980079681274674e+02 2.008103573184297730e+01
1.171828433925186763e+00 1.747387590499659572e-03 6.006839826839826628e+02 2.605527048399235213e+01
1.178029580193284076e+00 1.845903894892485285e-03 6.278930041152262902e+02 2.516996635314724173e+01
1.184400904434957269e+00 1.829516060217846983e-03 6.563974895397489036e+02 2.357802288381894229e+01
1.190737654720273042e+00 1.816225366119703435e-03 6.642194092827004397e+02 2.370411936342933856e+01
1.196977477342464180e+00 1.780548390738201196e-03 6.626593886462882210e+02 2.173682321360372782e+01
1.203312963818603976e+00 1.874247930763579166e-03 6.593677685950412979e+02 2.270213485825648547e+01
1.209645773529357093e+00 1.750259837788138012e-03 6.498849557522123632e+02 2.326519807816848839e+01
1.215952225700388523e+00 1.837678281197498587e-03 6.319449152542373440e+02 2.193347306596519886e+01
1.222254898926581568e+00 1.775628514659025698e-03 5.870337078651685943e+02 6.271592604386560765e+01
1.228537298751265050e+00 1.780223345631782141e-03 5.887318840579710013e+02 3.529805242114497332e+01
1.234759587745337228e+00 1.795376270296014523e-03 5.833405017921146509e+02 3.175849689207966264e+01
1.241110555825225781e+00 1.895169703334604900e-03 5.806476510067113850e+02 2.863427400290652614e+01
1.247523323486311897e+00 1.874537877840588536e-03 5.783682432432432279e+02 2.601397946230647662e+01
1.253854431820907944e+00 1.857283623330970761e-03 5.769463087248321926e+02 2.631457141240440123e+01
1.260138295168494293e+00 1.856490137450314505e-03 5.745182724252491653e+02 2.691883134493455643e+01
1.266501421045549414e+00 1.881588491645209797e-03 5.740353697749195589e+02 2.478710939114627720e+01
1.272807251993681055e+00 1.824447191781883651e-03 5.735606557377049057e+02 2.420585815320502832e+01
1.279100636071537789e+00 1.831925956271344968e-03 5.769108280254777128e+02 2.233534330495334075e+01
1.285385940199903265e+00 1.796864974607813087e-03 5.826282051282050816e+02 2.336235603459504873e+01
1.291734086560349049e+00 1.833790085687247952e-03 5.885214723926380884e+02 2.290054994153361889e+01
1.297999116585571544e+00 1.712347548001254965e-03 5.907184466019417641e+02 2.379396617247184054e+01
1.304332283077917598e+00 1.862331657852500611e-03 5.952802359882006158e+02 2.225632771492871598e+01
1.310629912671008812e+00 1.689758514739712848e-03 5.997724358974359120e+02 2.293207747926020446e+01
1.316859893871710430e+00 1.807323329610554348e-03 6.018179104477611645e+02 2.320960367669249891e+01
1.323169508333509325e+00 1.772103529485381237e-03 5.963617021276595551e+02 2.194330350794408702e+01
1.329416719622044551e+00 1.761213072716576004e-03 5.853655589123867458e+02 2.356351145940740466e+01
1.335676763851219473e+00 1.808340606324402439e-03 5.766309523809524080e+02 2.034471303203879344e+01
1.342102166253144047e+00 1.916040745002256648e-03 5.720450704225352183e+02 1.987689747828941833e+01
1.348432554966731090e+00 1.804515701739407276e-03 5.829516616314199382e+02 2.187952306265719216e+01
1.354697325729501189e+00 1.895450207138361931e-03 6.412776203966005824e+02 4.188626414637990791e+01
1.361035554581970564e+00 1.836151892644552735e-03 7.828488372093023600e+02 6.417474754147380622e+01
1.367445372286436589e+00 1.911657172750392099e-03 9.358712328767123836e+02 4.918850570650202769e+01
1.373833054624600258e+00 1.794265400870382644e-03 9.878985507246376301e+02 3.688294636860289444e+01
1.380048052911932777e+00 1.791287036868802413e-03 9.762279202279202082e+02 3.600387737516012976e+01
1.386332670155489666e+00 1.806335848089170130e-03 9.228792134831460316e+02 4.157863422646738627e+01
1.392624520144640332e+00 1.796075039907524609e-03 7.989666666666666970e+02 5.450256280076976623e+01
1.398923000198597277e+00 1.771229759338340285e-03 6.699747191011235827e+02 3.929986802701814241e+01
1.405184482923453881e+00 1.808998902686751115e-03 5.973315217391303804e+02 2.534698795830780682e+01
1.411475199677901360e+00 1.734371386327675756e-03 5.625589887640448978e+02 2.060464659501324292e+01
1.417706081410672780e+00 1.817237095201347432e-03 5.468172043010753214e+02 1.733186411500522439e+01
1.424046144262549829e+00 1.816956160244514703e-03 5.409078590785908318e+02 1.788337520113834955e+01
1.430457268966005335e+00 1.925855730949348329e-03 5.413933161953727904e+02 1.729824693097825872e+01
1.436865665354877475e+00 1.843763745384080412e-03 5.412607526881720332e+02 1.713615367423910030e+01
1.443084111958556903e+00 1.831535442318516687e-03 5.361693548387096371e+02 2.000433420778542981e+01
1.449466238371406979e+00 1.910439897345804971e-03 5.331240506329113487e+02 1.905342559117735490e+01
1.455780432464144347e+00 1.769262236301017126e-03 5.411432432432432051e+02 2.056831408241427539e+01
1.462109939136078340e+00 1.873282905934200038e-03 5.614135338345864739e+02 2.436749655481029109e+01
1.468414112563870999e+00 1.734923018383166060e-03 5.783653333333332967e+02 2.362762872382904078e+01
1.474680891373796765e+00 1.804015195942032307e-03 5.807538071065989698e+02 2.184961714264855459e+01
1.480924591063775386e+00 1.742163032935032654e-03 5.815613577023498237e+02 2.542586979761492216e+01
1.487138550370334267e+00 1.742602934721402272e-03 5.939305912596400958e+02 2.801198130341926174e+01
1.493462591150057195e+00 1.833511633313982111e-03 6.109133663366336577e+02 2.947288068734026112e+01
1.499809278721849770e+00 1.805357266360340307e-03 6.162342569269521846e+02 2.989686083968190999e+01
1.506175762378094918e+00 1.888906516140883814e-03 6.060097799511001995e+02 2.676210375163119792e+01
1.512543466733061504e+00 1.879653113941155348e-03 5.825441176470587834e+02 2.614916440385061946e+01
1.518927121842702510e+00 1.865813122140227640e-03 5.613651960784313815e+02 2.285997181158479918e+01
1.525176469146275027e+00 1.826629940430822378e-03 5.479478908188585820e+02 1.964308410980694219e+01
1.531416651941075235e+00 1.798854978931840659e-03 5.416856435643563827e+02 2.244899402232647034e+01
1.537728221615372926e+00 1.856986876758172280e-03 5.469125295508274576e+02 2.384081745919732143e+01
1.544096010846849332e+00 1.769518617434322075e-03 5.604087591240876236e+02 2.671894528320502005e+01
1.550405005344789089e+00 1.809055686031393537e-03 5.750236406619385434e+02 2.498703149375846522e+01
1.556696834359960313e+00 1.740139413919524446e-03 5.756747572815534113e+02 2.702130102906633624e+01
1.562969221032702194e+00 1.804120915253569534e-03 5.602688679245283083e+02 2.700120620665775917e+01
1.569251838380229191e+00 1.803338776033149233e-03 5.410883054892601649e+02 2.592797169074644614e+01
1.575556094315494926e+00 1.863019847936644557e-03 5.313799533799533492e+02 2.681249958796996324e+01
1.581892448177514066e+00 1.865480693804838323e-03 5.236365740740740193e+02 3.048404176868397997e+01
1.588269483401412163e+00 1.861295980786164313e-03 5.096843317972350178e+02 2.875173558327799128e+01
1.594574325321363339e+00 1.830133252637398044e-03 4.998310185185185333e+02 2.827184894885667532e+01
1.600916934751582588e+00 1.832077894544300927e-03 5.171389521640090834e+02 3.249964649782022974e+01
1.607201343968552854e+00 1.780442356845074459e-03 5.548958333333333712e+02 3.634738541762708763e+01
1.613445462524496721e+00 1.775524639999344866e-03 5.909610091743119256e+02 3.541449510696867975e+01
1.619730849749851931e+00 1.787630240083115185e-03 6.239142212189616430e+02 3.864460558629046005e+01
1.625979803600224649e+00 1.755895091839796123e-03 6.759034482758620470e+02 4.217401957450756100e+01
1.632226613292544926e+00 1.821174808670054370e-03 7.298456375838926533e+02 4.141394124416986244e+01
1.638606704061473573e+00 1.894452323361247963e-03 7.226138828633405637e+02 4.170773959794430397e+01
1.645050487946952522e+00 1.887301666918968484e-03 6.300108695652173765e+02 4.623420897338987601e+01
1.651415996904310735e+00 1.851783837096881687e-03 5.288421052631579187e+02 3.668265621313891245e+01
1.657788871265904573e+00 1.852242853945953917e-03 4.768056155507559311e+02 2.922539618020782726e+01
1.664006124760511351e+00 1.741113674427757210e-03 4.739795918367346985e+02 2.977134310982947696e+01
1.670281873961185770e+00 1.842366346193471905e-03 4.944016913319238711e+02 3.306723499649555720e+01
1.676541801276667298e+00 1.721555322686186195e-03 5.106031390134529033e+02 3.129002759316702509e+01
1.682793682471841024e+00 1.824670227224382997e-03 4.965210970464135016e+02 3.243203897638545641e+01
1.689107465299970467e+00 1.791603935857043455e-03 4.646789587852494492e+02 3.254141912208804399e+01
1.695415952935033443e+00 1.877357617877282179e-03 4.381524008350730810e+02 3.110457904316928790e+01
1.701806617780016628e+00 1.875253898477295287e-03 4.221691022964509443e+02 3.113910710450331365e+01
1.708145235544118012e+00 1.851238026496159058e-03 4.163999999999999773e+02 3.079037443576704547e+01
1.714469347376187613e+00 1.845626368464784459e-03 4.134824016563147211e+02 3.063631868212670639e+01
1.720739519194126599e+00 1.771881702320935673e-03 4.144957264957265011e+02 3.059996533639619898e+01
1.726990948287859817e+00 1.820993782645452704e-03 4.167632653061224346e+02 3.232043967045407840e+01
1.733361150263370787e+00 1.784216608021570085e-03 4.218698347107438167e+02 4.199977049872084933e+01
1.739571674833123582e+00 1.760427731239605715e-03 4.290083857442348290e+02 1.193097283041671659e+02
1.745887440247851030e+00 1.853392121839796862e-03 4.277454909819639397e+02 1.824475240823479680e+02
1.752250177420427102e+00 1.860925844240075020e-03 4.159352226720647536e+02 1.124620481405164014e+02
1.758607387389414800e+00 1.864192030273802104e-03 4.042019999999999982e+02 3.801454458493484623e+01
1.764972322429467777e+00 1.851098948525789619e-03 4.073999999999999773e+02 3.139106242228828947e+01
1.771273520234028620e+00 1.808016239517707931e-03 4.145000000000000000e+02 3.351409489232273842e+01
1.777586992161852564e+00 1.807004964737956481e-03 4.225346534653465369e+02 3.350537649238817295e+01
1.783840233931820451e+00 1.746107465683986813e-03 4.324175152749490962e+02 3.501672067528798493e+01
1.790071520275328565e+00 1.795583184790444783e-03 4.521318897637795544e+02 3.477628998370427382e+01
1.796393698957722052e+00 1.819993601147859141e-03 4.872252964426877497e+02 3.870276775913245615e+01
1.802712928873270393e+00 1.883216042231023422e-03 5.412337164750957754e+02 4.275894117486563317e+01
1.809114577024696358e+00 1.850157529878445435e-03 5.928023255813953938e+02 4.448008524716129131e+01
1.815345782948464493e+00 1.803540499391122600e-03 6.050830039525691291e+02 4.400075450390521326e+01
1.821700705453981772e+00 1.863872113208649628e-03 5.620317164179105021e+02 4.571599732533692162e+01
1.828034416566336029e+00 1.759461126105644731e-03 4.997952755905511708e+02 4.280468606919456676e+01
1.834289862490237510e+00 1.817049905439401892e-03 4.522937853107344495e+02 3.854755820359056173e+01
1.840620947190598100e+00 1.780340576699249600e-03 4.288423076923077133e+02 3.578992959829465548e+01
1.846876290479544158e+00 1.833628160635640113e-03 4.212268431001890576e+02 3.664688717535051410e+01
1.853225331533147280e+00 1.864396810776891523e-03 4.185444444444444230e+02 3.649937791904631013e+01
1.859586416204100923e+00 1.843230203276794224e-03 4.170093457943925159e+02 3.729769010453929212e+01
1.865884580336470755e+00 1.827085395033201023e-03 4.174245810055866173e+02 3.671412081031946428e+01
1.872200528994375501e+00 1.799198018262535481e-03 4.209703703703703468e+02 3.677596075478636806e+01
1.878453452628845000e+00 1.760356359008985331e-03 4.287062146892655505e+02 3.674441873670006942e+01
1.884712324747962020e+00 1.805687576808031941e-03 4.343229927007299125e+02 3.762808183378839999e+01
1.891113706724730337e+00 1.861939656346446982e-03 4.389190647482014356e+02 3.812716032276372857e+01
1.897400945427566432e+00 1.833350088909791505e-03 4.448014705882353041e+02 3.771929410261385840e+01
1.903772875545957088e+00 1.875180743362649160e-03 4.581901408450704025e+02 3.789318881644607728e+01
1.910018917854334752e+00 1.739883276586547947e-03 4.804139886578449818e+02 3.958830550605109266e+01
1.916236012056648175e+00 1.833205283437960029e-03 5.037719298245614254e+02 4.164587810119182620e+01
1.922638163561010805e+00 1.793373418488206777e-03 5.239249999999999545e+02 4.230566440881680279e+01
1.928888348891847349e+00 1.792288115248428593e-03 5.317931654676259541e+02 4.429639800535299798e+01
1.935240631371640818e+00 1.865766417879262265e-03 5.300103806228373742e+02 4.350034697584415255e+01
1.941608872090050619e+00 1.856644915843207438e-03 5.218558875219683841e+02 4.569967751410685253e+01
1.947917338414854704e+00 1.837601359788319485e-03 5.130052539404553045e+02 4.367560704328168697e+01
1.954236834815996637e+00 1.805754229573221887e-03 4.993986013986013859e+02 4.471550546695451089e+01
1.960488135501994522e+00 1.772905664188001006e-03 4.797008849557522012e+02 4.502208210300075564e+01
1.966755922696415082e+00 1.810201296061439468e-03 4.557091222030981044e+02 4.366630525655018147e+01
1.973091583736556354e+00 1.814240900008777741e-03 4.335362068965517324e+02 4.240949340415033220e+01
1.979420480567132490e+00 1.865397302840512408e-03 4.174838709677419502e+02 4.121166903842117080e+01
1.985762243830389018e+00 1.849873766110382307e-03 4.034711864406779682e+02 4.195579759044908030e+01
1.992143605840229093e+00 1.840662096304069391e-03 3.980234505862646301e+02 4.577612287753437670e+01
1.998372952698491245e+00 1.738412627792555948e-03 3.988207381370826283e+02 5.751552913290306179e+01
2.004614638405731508e+00 1.821010887715033720e-03 3.990728476821192316e+02 5.300430863952247762e+01
2.010981699228176822e+00 1.807963355431743604e-03 3.983535353535353352e+02 4.943723891052316333e+01
2.017216781415232862e+00 1.822968187424302972e-03 3.990775716694772086e+02 4.129916987261044881e+01
2.023555507756473748e+00 1.866836436713831520e-03 4.006520325203251787e+02 4.004562818301327809e+01
2.029945947492921121e+00 1.842053164818473936e-03 4.056726973684210407e+02 3.905654511397049333e+01
2.036236367431154548e+00 1.802040352124230577e-03 4.023305785123966984e+02 3.925993509835857509e+01
2.042538823796997693e+00 1.786279422623429517e-03 3.874088669950738790e+02 4.039152801367522017e+01
2.048720173306640469e+00 1.747373060808409071e-03 3.720000000000000000e+02 4.094804479924964369e+01
2.055017041239767028e+00 1.892889576395914968e-03 3.598685446009389466e+02 4.112538228087574765e+01
2.061465280497128294e+00 1.850343878148330047e-03 3.484855769230769056e+02 4.044912830209580790e+01
2.067778354784032935e+00 1.826644103880053095e-03 3.405265700483091678e+02 3.948740271136217928e+01
2.074107962816127415e+00 1.810449409964311413e-03 3.349809523809523739e+02 3.807045999740757480e+01
2.080392027050733006e+00 1.757304311173108879e-03 3.324641693811074674e+02 3.797670243937720613e+01
2.086560915145909245e+00 1.789004268885935290e-03 3.305672609400324404e+02 3.843228539480356432e+01
2.092907509218693285e+00 1.897916204239676529e-03 3.289435975609756042e+02 3.802842840470646735e+01
2.099341076602548206e+00 1.841856996552926774e-03 3.266875000000000000e+02 3.863839143868116821e+01
2.105598503643897335e+00 1.780460926307301031e-03 3.279201277955271507e+02 3.884790376616059149e+01
2.111872942412509335e+00 1.813036870717739954e-03 3.298688271604938222e+02 3.873038569965627431e+01
2.118179840511383194e+00 1.773074262998883873e-03 3.311133858267716619e+02 3.780319841499684941e+01
2.124489700938873238e+00 1.854176769044688739e-03 3.280795107033638942e+02 3.849571930914704154e+01
2.130866139955553962e+00 1.876679961187130126e-03 3.190423600605143974e+02 3.940360720331235456e+01
2.137196345481136905e+00 1.803165093871285981e-03 3.103111455108358996e+02 3.827687082820541065e+01
2.143477781291089013e+00 1.808033309626025679e-03 3.045236641221374043e+02 3.825031870086714747e+01
2.149749346762158453e+00 1.787076492040512573e-03 3.039185867895545243e+02 3.767335972955962831e+01
2.156014428448592479e+00 1.811767013668930289e-03 3.053211567732115554e+02 3.722608856472781014e+01
2.162388958755252943e+00 1.899773100682969557e-03 3.046861313868612910e+02 3.766541530427026174e+01
2.168776559916051561e+00 1.828625003914755194e-03 3.016321321321321420e+02 3.708011180468857759e+01
2.175079146577416189e+00 1.799027495536281414e-03 2.972746268656716211e+02 3.671871179583570921e+01
2.181358965593887422e+00 1.775037425494343461e-03 2.956641566265060419e+02 3.701057670150002821e+01
2.187625576602315824e+00 1.830837683859201127e-03 2.982988165680473571e+02 3.746734155553849632e+01
2.193923842198696850e+00 1.837507381709080519e-03 3.026519823788545978e+02 3.698746010873688306e+01
2.200310743338333541e+00 1.859271066102410235e-03 3.027173601147775912e+02 3.758304124145044511e+01
2.206637920896229677e+00 1.789161753318371274e-03 2.989896296296296327e+02 3.807228829938078007e+01
2.212855268310565560e+00 1.778695396750237757e-03 2.927216494845361012e+02 3.708488677085534135e+01
2.219155297956861617e+00 1.826812665150635666e-03 2.878489208633093313e+02 3.645008384614036601e+01
2.225534449623195243e+00 1.883537061579874895e-03 2.854203102961918148e+02 3.623439147144751615e+01
2.231816049321749151e+00 1.789850136339156059e-03 2.854111600587371527e+02 3.653715519516635624e+01
2.238124350048766420e+00 1.838516226422660244e-03 2.870139664804469248e+02 3.803319034028621815e+01
2.244461256680506001e+00 1.769483755913013904e-03 2.867583212735166285e+02 4.044648423278570704e+01
2.250672411056880762e+00 1.815340560525242463e-03 2.841879483500717356e+02 3.933005259204594495e+01
2.256976265699253581e+00 1.875232856265233962e-03 2.797555248618784276e+02 3.631259091382604254e+01
2.263404067221236105e+00 1.844596500685106652e-03 2.785399449035812722e+02 3.580823738169588921e+01
2.269740131332425914e+00 1.784620609829179342e-03 2.817708628005657943e+02 3.500504410281490664e+01
2.275928662030326066e+00 1.770462641505800294e-03 2.878205128205128176e+02 3.508059920174637369e+01
2.282234771450446509e+00 1.859120215862977580e-03 2.944579945799458187e+02 3.581588071537682083e+01
2.288651494096741512e+00 1.861574731480084791e-03 2.973744911804613480e+02 3.623835638436332829e+01
2.294929189507614264e+00 1.787386468760323059e-03 3.015898876404494331e+02 3.602749100695930906e+01
2.301123790424945526e+00 1.773889529887621910e-03 3.114208333333333485e+02 3.433820572897170820e+01
2.307427473574251042e+00 1.823767960867003161e-03 3.222368064952638633e+02 3.670951316474688753e+01
2.313824548022820782e+00 1.807223345639351721e-03 3.389390787518573802e+02 3.767727668984474576e+01
2.320154992066300714e+00 1.861695907969135875e-03 3.426982248520710073e+02 3.905774696232730747e+01
2.326479049872378635e+00 1.797363522119922990e-03 3.394545454545454390e+02 3.867744937749630196e+01
2.332811122143054305e+00 1.834923033436536115e-03 3.330835866261398337e+02 3.822794944841643172e+01
2.339146829363451641e+00 1.809933127175767861e-03 3.299733124018838453e+02 3.709414641147115077e+01
2.345346999874724947e+00 1.788822558822959720e-03 3.326398713826366702e+02 3.589709235645779017e+01
2.351591514044208964e+00 1.821961582186779451e-03 3.402944881889764019e+02 3.496540979596500165e+01
2.357940827546205931e+00 1.821480796874143165e-03 3.498560126582278258e+02 3.510589209905513286e+01
2.364269371024037891e+00 1.822839816105960298e-03 3.634599358974359120e+02 3.609257280150063707e+01
2.370575565839220911e+00 1.828742917233826173e-03 3.717765273311896976e+02 3.887666444418882605e+01
2.376891771469677561e+00 1.815523241845057745e-03 3.589773462783171567e+02 4.158627831392850283e+01
2.383240749019818416e+00 1.833462819707767054e-03 3.279163987138263678e+02 4.169830336389460257e+01
2.389601619010945921e+00 1.828185711102788165e-03 2.993143322475569903e+02 3.742461800623775758e+01
2.395961259100775731e+00 1.812604844355751544e-03 2.791001589825119140e+02 3.487428683973937638e+01
2.402160007896914973e+00 1.807533258736503850e-03 2.724701492537313356e+02 3.390868715210888951e+01
2.408453972146052724e+00 1.793232887210479852e-03 2.684122807017544119e+02 3.400903193423062021e+01
2.414771780432101167e+00 1.830638750947721858e-03 2.646628407460545418e+02 3.392692861920128422e+01
2.421058800843912895e+00 1.849123668637423033e-03 2.639816124469589909e+02 3.334120765825211663e+01
2.427397847212681370e+00 1.833909450969152099e-03 2.638652777777778056e+02 3.253647093011809233e+01
2.433701938443864954e+00 1.777285794113256248e-03 2.638059071729957736e+02 3.304970090778883929e+01
2.440001432560962691e+00 1.835928632076300280e-03 2.655075239398084932e+02 3.248811665610728738e+01
2.446276920633820851e+00 1.825543246774167941e-03 2.682709766162311098e+02 3.241694261671135280e+01
2.452612917458465880e+00 1.850886418197054181e-03 2.738819628647214586e+02 3.128177698220202174e+01
2.458937188373468086e+00 1.764090576915684772e-03 2.808726027397260054e+02 3.174526228609649792e+01
2.465235494564519847e+00 1.842465198645606636e-03 2.854068692206076889e+02 3.379161588364932811e+01
2.471581205305689810e+00 1.856761058240425245e-03 2.825486842105262895e+02 3.595766420331622015e+01
2.477865992864338285e+00 1.798850075022648308e-03 2.741677762982689615e+02 3.648776363052796512e+01
2.484122936716935737e+00 1.780971833254360159e-03 2.658494055482166232e+02 3.547013333545469038e+01
2.490467721662181333e+00 1.849468727863495983e-03 2.607011494252873831e+02 3.462023065372569164e+01
2.496849546734450254e+00 1.852734310658727887e-03 2.561047254150702202e+02 3.402841418889825320e+01
2.503105859710241798e+00 1.772860352036017325e-03 2.531385224274406198e+02 3.290847613719335385e+01
2.509322203788900918e+00 1.804578376445024500e-03 2.512410256410256295e+02 3.368816135747987062e+01
2.515643032193938478e+00 1.830400595634155535e-03 2.492015113350125830e+02 3.403333970103746964e+01
2.522012436559997628e+00 1.844427975373299751e-03 2.446985111662530983e+02 3.331778779464863760e+01
2.528376527697731913e+00 1.805263014170996501e-03 2.434798994974874233e+02 3.188563416642825032e+01
2.534662305746367750e+00 1.817191430107880853e-03 2.467267002518891559e+02 3.139037581043017866e+01
2.540923642722284104e+00 1.847774197163838152e-03 2.531163366336633658e+02 3.157142971303461465e+01
2.547222087144660030e+00 1.810867478977307979e-03 2.589071782178218086e+02 3.187469560220707265e+01
2.553540685742163419e+00 1.807658101810726481e-03 2.622827417380660791e+02 3.332808552040789607e+01
2.559925401613222018e+00 1.856915584780679824e-03 2.611664670658682894e+02 3.525841348686397936e+01
2.566280305514876403e+00 1.838802799104265022e-03 2.545847457627118615e+02 3.595681349190966358e+01
2.572544852388987113e+00 1.785952156998167010e-03 2.487386503067484682e+02 3.490017440084474032e+01
2.578799894204640619e+00 1.806472379669163885e-03 2.445441354292623828e+02 3.388285679385686677e+01
2.585123793491197919e+00 1.855120447360665906e-03 2.425111633372502808e+02 3.356725285588606766e+01
2.591472256141813091e+00 1.805120360344933915e-03 2.397306317044100012e+02 3.295362533021115325e+01
2.597744265483155957e+00 1.788819714346394623e-03 2.383393285371702746e+02 3.325061636168984336e+01
2.604038454996993934e+00 1.850630787333012181e-03 2.373578088578088625e+02 3.475090363718371123e+01
2.610374414453144443e+00 1.837105816396599096e-03 2.337054714784633234e+02 3.446268400418695421e+01
2.616634120485421100e+00 1.761050173804210722e-03 2.319474940334128803e+02 3.342996878439195996e+01
2.622940397920966227e+00 1.848634675493098997e-03 2.334027303754266143e+02 3.329594324207352685e+01
2.629323187355575353e+00 1.839581463337864892e-03 2.372739726027397182e+02 3.298404070554088463e+01
2.635681273538560632e+00 1.815290224604702678e-03 2.427216494845360728e+02 3.349671441846012243e+01
2.641934789831782204e+00 1.778405014700361417e-03 2.507323943661971839e+02 3.544571526165938025e+01
2.648176773767660031e+00 1.853093332118325998e-03 2.603878241262682991e+02 4.240988823887296633e+01
2.654514065851063087e+00 1.823524830511773481e-03 2.656858757062146879e+02 5.385719094218605818e+01
2.660817448321032508e+00 1.798052776896779401e-03 2.979499431171786341e+02 3.132219946223071929e+02
2.667123571907564994e+00 1.844852426740933296e-03 5.358911111111110586e+02 1.342897542720383854e+03
2.673472329675100401e+00 1.839448802019330543e-03 1.211174972314507158e+03 4.191939868623920120e+03
2.679761377760365715e+00 1.786299887381436651e-03 2.613108597285067844e+03 9.658091950077799993e+03
2.686129035698236578e+00 1.877272974428747035e-03 5.322573700954400920e+03 1.938492558630104031e+04
2.692300573720700196e+00 1.798376592015874225e-03 3.282933782267115475e+03 1.148030909007338596e+04
2.698561328278970439e+00 1.798779619418457414e-03 1.864710376282782136e+03 5.695430925254009708e+03
2.704947056964875252e+00 1.860594623228957294e-03 9.283988764044943309e+02 1.721828750113255637e+03
2.711339925705444909e+00 1.826229981736538378e-03 6.273923611111110858e+02 7.603891010086913411e+02
2.717643416720191052e+00 1.774618570520191145e-03 8.759546539379474552e+02 2.385851798034731473e+03
2.723934694222051256e+00 1.823763048442502126e-03 1.187322314049586794e+03 4.253984279553164015e+03
2.730274673678132036e+00 1.841398355898408350e-03 1.241283353010625660e+03 4.672143706457263761e+03
2.736591263199737778e+00 1.788312012670147501e-03 9.512341463414634291e+02 3.233621966886253631e+03
2.742885231028380222e+00 1.844652457607765493e-03 5.456091127098321749e+02 1.300415241826582360e+03
2.749161241756704843e+00 1.804773587711254630e-03 3.370786240786241024e+02 3.322545131106748499e+02
2.755398232824302962e+00 1.776157869081165970e-03 2.736827757125154790e+02 8.594312745401806808e+01
2.761751565609168679e+00 1.857903093933079139e-03 2.532305854241338068e+02 3.990621813248500160e+01
2.768124311574730267e+00 1.813883183384283311e-03 2.423840490797545897e+02 2.976181884505359321e+01
2.774423663616722546e+00 1.776295681999270643e-03 2.368002496878901297e+02 2.596475187297014386e+01
2.780754869867226198e+00 1.842436817654598789e-03 2.355444579780755134e+02 2.458402211625756451e+01
2.787077464795406190e+00 1.805278297034774168e-03 2.354812499999999886e+02 2.412584713538572956e+01
2.793346642012575654e+00 1.793644434711254678e-03 2.389974779319041716e+02 2.321181028568664573e+01
2.799634253246212179e+00 1.838111547031318375e-03 2.461997518610421878e+02 2.262684234858640764e+01
2.805924842988945844e+00 1.808245895551135627e-03 2.540075757575757507e+02 2.199201996343758836e+01
2.812167973206011862e+00 1.789098639402584082e-03 2.646905370843989544e+02 2.194208257815058971e+01
2.818496662748549042e+00 1.874446068014908040e-03 2.774254278728606096e+02 2.268551277011774658e+01
2.824858807967614460e+00 1.791571154666717633e-03 2.843745222929936176e+02 2.416889259743155449e+01
2.831150482550185643e+00 1.815112775054883139e-03 2.857924050632911417e+02 2.664197095275416771e+01
2.837475400148095517e+00 1.850316795954077458e-03 2.774844333748443432e+02 2.930145716671531630e+01
2.843805018276897911e+00 1.786824753329564535e-03 2.629897304236200171e+02 2.873961067120592716e+01
2.850131561922547352e+00 1.845583173970813699e-03 2.500599250936329554e+02 2.675059786795209149e+01
2.856484494638581229e+00 1.841115527677602507e-03 2.396264009962640102e+02 2.462267042289513697e+01
2.862782859862781137e+00 1.780809355167121575e-03 2.349655612244897895e+02 2.192627476672162601e+01
2.869068523143336158e+00 1.847699945098150954e-03 2.361828220858895691e+02 2.125665373509788125e+01
2.875378514069953706e+00 1.802909528894259443e-03 2.375468164794007464e+02 2.086386650027867162e+01
2.881671995666307051e+00 1.819305449905813353e-03 2.365900621118012452e+02 2.130229948684734964e+01
2.887980092673573917e+00 1.848812746508326317e-03 2.322279411764705799e+02 2.121574028605262541e+01
2.894292086458025270e+00 1.795011172749967111e-03 2.274723618090452248e+02 1.982644116447152882e+01
2.900588101801901963e+00 1.834444505730529681e-03 2.272311495673671118e+02 1.858029733145244933e+01
2.906894294921833044e+00 1.834235081131648307e-03 2.303172242874845210e+02 1.771686682990292994e+01
2.913143215321425394e+00 1.775388414920497622e-03 2.352804097311139628e+02 1.704167035233685823e+01
2.919469846096636179e+00 1.902110692867622259e-03 2.417398081534772132e+02 1.766176614685542390e+01
2.925831071463227850e+00 1.799019204260941503e-03 2.433045685279187751e+02 1.796839470504893299e+01
2.932125236913744715e+00 1.849572311535908030e-03 2.408541409147095180e+02 1.779972509783591050e+01
2.938426190430696305e+00 1.829943172517629413e-03 2.346217228464419406e+02 1.734956758286809020e+01
2.944698497868602605e+00 1.792371922793937686e-03 2.282043147208121923e+02 1.554607976294261995e+01
2.951032364443879619e+00 1.872648010744969562e-03 2.244550970873786468e+02 1.469639319438386948e+01
2.957349976869245278e+00 1.772646084934545842e-03 2.207442455242966730e+02 1.440817087336527891e+01
2.963641534615172990e+00 1.843499637433317897e-03 2.186320987654320902e+02 1.454804715293532702e+01
2.969974563050315375e+00 1.835483252247156055e-03 2.164236024844720419e+02 1.435672306229050399e+01
2.976261971728969780e+00 1.784595762971840369e-03 2.149119897959183731e+02 1.441503251311725542e+01
2.982555079221103078e+00 1.856376802478345786e-03 2.158029375764993745e+02 1.446335325494990443e+01
2.988860230475899549e+00 1.767956570045068222e-03 2.167861715749039604e+02 1.383708376426691622e+01
2.995178874680174186e+00 1.856934622757372335e-03 2.195550122249388778e+02 1.376530397319481835e+01
3.001496400543723020e+00 1.797819739674591305e-03 2.221254752851710919e+02 1.341587426933907956e+01
3.007822553902104179e+00 1.849516356328991537e-03 2.260000000000000000e+02 1.295403144557976027e+01
3.014155913686516808e+00 1.844070628166239031e-03 2.283428571428571558e+02 1.369896919029543447e+01
3.020427983220980828e+00 1.780401570183770890e-03 2.277346153846153811e+02 1.458748146132893275e+01
3.026726854870708916e+00 1.864734463497724846e-03 2.398569682151589291e+02 2.108736864591969606e+02
3.033042693621903041e+00 1.790509691971886499e-03 3.171505102040816269e+02 1.216102965497460673e+03
3.039417687211595442e+00 1.892848977299335135e-03 3.328152173913043725e+02 1.603066486103721900e+03
3.045771113053035606e+00 1.809002971513908259e-03 2.404005069708491646e+02 4.876820473067240300e+02
3.052089874155329063e+00 1.844438578281415919e-03 2.096650124069478807e+02 2.598785788158200560e+01
3.058386304167925118e+00 1.824217551217444024e-03 2.082218045112782079e+02 1.280556164446113598e+01
3.064635661305841197e+00 1.781811879387494579e-03 2.107166666666666686e+02 1.538285342474468109e+01
3.070942258104439215e+00 1.879278577764203085e-03 2.159042424242424261e+02 2.283562711930740363e+01
3.077306102136554866e+00 1.789896323379901438e-03 2.324091486658195720e+02 9.939603293773312487e+01
3.083610248093582751e+00 1.842323938384468965e-03 3.386949569495694732e+02 7.319527060487610015e+02
3.089899276602742884e+00 1.781295098450355954e-03 6.857324840764331384e+02 2.336522633042241523e+03
3.096219282790054539e+00 1.849962857272845727e-03 1.162893382352941217e+03 4.299266145572150890e+03
3.102516781183005889e+00 1.793151767743564459e-03 1.657858048162230716e+03 5.978646201947402915e+03
3.108846425703184035e+00 1.844538984569745127e-03 1.358377613776137650e+03 3.613709221673363572e+03
3.115155056293756886e+00 1.812510444856532069e-03 1.027575909661229616e+03 2.159431163258023844e+03
3.121484332076036150e+00 1.832521331068808152e-03 5.462406947890818856e+02 9.443774792200138108e+02
3.127777573742708483e+00 1.818133687887086257e-03 3.314638403990024926e+02 3.131950324050606582e+02
3.134074710556275623e+00 1.800750836428910992e-03 2.543757881462799446e+02 6.991629287031065587e+01
3.140350968701055567e+00 1.840082388152106639e-03 2.306009852216748754e+02 4.154894022403220788e+01
3.146669598331559570e+00 1.795769837056059460e-03 2.142500000000000000e+02 2.834671586806927834e+01
3.152959210157879166e+00 1.842768641532451131e-03 2.014233128834355853e+02 1.711442474037574968e+01
3.159264892205651432e+00 1.791857333635609589e-03 1.948797468354430293e+02 1.991521445287632375e+01
3.165581888857809112e+00 1.858342078644047027e-03 1.918264563106796174e+02 2.790883237263443561e+01
3.171905560319084216e+00 1.782720971754531017e-03 1.887693282636248284e+02 1.785339491107369980e+01
3.178180461481988406e+00 1.828434529921516482e-03 1.868169533169533167e+02 1.011886013658712002e+01
3.184506679420991304e+00 1.810619157308176325e-03 1.847285180572851857e+02 9.431244637395050034e+00
3.190846230582273346e+00 1.831490456789015321e-03 1.842762836185819140e+02 8.579830515208646702e+00
3.197132365687451294e+00 1.780884113596707067e-03 1.841658227848101319e+02 8.473894613546178789e+00
3.203454230992797136e+00 1.862619862555806765e-03 1.856743063932448763e+02 8.958403877884023814e+00
3.209790152929830498e+00 1.796864404628749357e-03 1.860679245283018872e+02 9.014760781611768081e+00
3.216105270782768422e+00 1.849581865447865814e-03 1.894441747572815586e+02 9.130451305160816489e+00
3.222383723154825574e+00 1.773184836801974633e-03 1.937373096446700629e+02 9.035347984759612316e+00
3.228652903688512765e+00 1.829814433570467642e-03 1.986163215590742936e+02 9.586884413405092786e+00
3.234977992221026444e+00 1.801123950508762587e-03 1.988880597014925513e+02 1.062574629704655926e+01
3.241301441286830176e+00 1.830570155328411054e-03 1.945188335358444647e+02 1.158978773425411646e+01
3.247581817024004280e+00 1.774748969754167847e-03 1.848584070796460139e+02 1.121962115502125457e+01
3.253885986942128827e+00 1.868811343678552150e-03 1.771508982035928170e+02 1.117450786466348411e+01
3.260235987169183947e+00 1.804603356501592029e-03 1.720275000000000034e+02 1.285123644343219418e+01
3.266546856392692710e+00 1.857627301288636550e-03 1.690937500000000000e+02 1.677730915444852755e+01
3.272886904023045052e+00 1.792569475559808913e-03 1.674250000000000114e+02 2.871460701890231348e+01
3.279153478698136670e+00 1.837211362056317054e-03 1.655915151515151535e+02 2.647264871228216165e+01
3.285516195699416553e+00 1.819318898053023329e-03 1.645970515970516033e+02 2.821008475764816126e+01
3.291677990232397821e+00 1.824817096246810931e-03 1.610196592398427242e+02 1.391114495028504372e+01
3.298068987764390059e+00 1.863784166448585874e-03 1.580479452054794649e+02 9.868683682263133861e+00
3.304430978840338096e+00 1.814787339162488022e-03 1.574912790697674438e+02 8.995754728207653983e+00
3.310737564052387061e+00 1.817945227602999880e-03 1.570000000000000000e+02 8.250992003851358447e+00
3.317033906120231190e+00 1.800198345421728579e-03 1.565932203389830590e+02 8.432566135703938315e+00
3.323313479518194669e+00 1.810036704891648416e-03 1.557194357366771271e+02 8.231609923458348632e+00
3.329645772824664451e+00 1.853775369266378323e-03 1.544430577223088790e+02 8.283078126643813377e+00
3.335990548707715053e+00 1.826590486813650920e-03 1.539261637239165452e+02 7.949936621593788999e+00
3.342268739174953929e+00 1.807641793864574143e-03 1.525970636215334366e+02 7.819337699091342131e+00
3.348554594221377023e+00 1.807536448754866812e-03 1.499292763157894797e+02 7.929364164242237223e+00
3.354810866618635590e+00 1.798386852034845364e-03 1.473350083752093838e+02 7.395767422501024591e+00
3.361143554435736203e+00 1.860575678898459748e-03 1.450803278688524642e+02 6.989235782504025885e+00
3.367505271257411170e+00 1.829077091643749146e-03 1.435760135135135158e+02 6.892778659166838295e+00
3.373804785089639324e+00 1.803149868685275390e-03 1.420623916811091760e+02 6.642885756997648272e+00
3.380079784639911100e+00 1.805631642174917659e-03 1.418101933216168788e+02 6.462180236816680079e+00
3.386416571036835244e+00 1.843579116849991192e-03 1.415035211267605746e+02 6.420353923660166551e+00
3.392732849186819166e+00 1.821713749179523084e-03 1.410744101633393939e+02 6.386098728914092248e+00
3.399077842768783331e+00 1.840157085703132342e-03 1.407807971014492807e+02 6.057582571105005975e+00
3.405368445234043140e+00 1.771416845865005909e-03 1.405286259541984748e+02 5.926248255898225459e+00
3.411642977450664915e+00 1.840004348347408980e-03 1.394699248120300865e+02 5.912581958580012120e+00
3.417946432239648225e+00 1.816648589106147462e-03 1.382834951456310648e+02 6.226609544150626618e+00
3.424268333461439884e+00 1.838339958730071926e-03 1.374410058027079344e+02 5.764040411226650562e+00
3.430601598134079389e+00 1.799761940178920376e-03 1.366352705410821784e+02 5.678820919178579452e+00
3.436922606236269218e+00 1.844213366763177700e-03 1.360459999999999923e+02 5.675911909112048015e+00
3.443269856433799347e+00 1.834668830692703879e-03 1.366032719836400702e+02 6.523457442782239823e+00
3.449516618902171317e+00 1.769622948488585408e-03 1.369444444444444571e+02 6.468777741589627261e+00
3.455771942280530862e+00 1.817195070858158281e-03 1.368583509513742058e+02 5.802669041179759901e+00
3.462154010515302804e+00 1.866018191136946868e-03 1.361603375527426181e+02 5.452513585096609994e+00
3.468478914699885340e+00 1.799468636805881495e-03 1.371308203991130767e+02 5.516034360899513267e+00
3.474737530089159865e+00 1.798535080277152308e-03 1.368923766816143370e+02 5.557229053002195052e+00
3.481027808853469629e+00 1.828779808500339806e-03 1.360723981900452486e+02 5.723602727412269608e+00
3.487370903609774420e+00 1.855504762412056021e-03 1.362647058823529278e+02 5.370923502591949728e+00
3.493710577164840458e+00 1.791815171782784382e-03 1.353144208037824967e+02 5.754738299295827808e+00
3.499981309375833849e+00 1.817721919481020843e-03 1.340286396181384134e+02 5.300894904454143131e+00
3.506294281862427642e+00 1.840208171226962808e-03 1.331079136690647431e+02 5.106832729209705768e+00
3.512643170548069183e+00 1.819719049123772565e-03 1.324373464373464344e+02 5.057553205261736906e+00
3.518887929185086527e+00 1.780316295825717758e-03 1.322307692307692264e+02 5.134963495354114116e+00
3.525201780775713889e+00 1.871585280235478531e-03 1.327593052109181144e+02 4.588909900089712224e+00
3.531587235286628879e+00 1.812415240060859375e-03 1.330755208333333428e+02 4.588222416060070863e+00
3.537791204901774123e+00 1.765649031450039182e-03 1.332125340599455114e+02 4.809911111185386723e+00
3.544104483213670331e+00 1.881636984785636617e-03 1.338046875000000000e+02 5.124023344440869820e+00
3.550526160049383151e+00 1.823753900979235669e-03 1.337513661202185915e+02 4.984710416048084625e+00
3.556826252644191833e+00 1.805941154371571225e-03 1.330140845070422415e+02 5.274425050295832307e+00
3.563110991539715666e+00 1.831382697511484874e-03 1.310965909090909065e+02 4.575072186464782753e+00
3.569418747584309326e+00 1.819035597463529485e-03 1.297470930232558146e+02 4.673883458896311183e+00
3.575721219182565580e+00 1.815191134896390569e-03 1.285103857566765555e+02 5.012365728344598814e+00
3.582041784633743120e+00 1.836067019019354488e-03 1.265675675675675649e+02 4.753471087455054978e+00
3.588351193306853926e+00 1.816205673054769026e-03 1.252755417956656316e+02 4.352058095381678093e+00
3.594644124218077774e+00 1.816162507538995278e-03 1.249589905362775966e+02 4.355433123042912413e+00
3.600965899690116157e+00 1.832434222657099978e-03 1.246102236421725280e+02 4.303597391107996550e+00
3.607301933810233674e+00 1.823864462282996299e-03 1.240459016393442653e+02 4.564798768727795775e+00
3.613589615564896995e+00 1.801875725405921403e-03 1.224644067796610187e+02 4.294987491533294843e+00
3.619872304563952703e+00 1.819848024125704684e-03 1.222233676975944974e+02 3.919597631426166462e+00
3.626184481674183946e+00 1.827760715362539709e-03 1.218842105263157833e+02 4.106931734679171164e+00
3.632455309189269510e+00 1.797655079431180383e-03 1.203029197080291937e+02 3.600567972197527666e+00
3.638754857574894697e+00 1.841922947680418475e-03 1.186605839416058359e+02 3.371247516778177022e+00
3.645110863435991444e+00 1.833895812584415653e-03 1.176240601503759393e+02 3.801478775971959490e+00
3.651399341121458253e+00 1.797724079201825547e-03 1.163568627450980415e+02 4.243048456901296284e+00
3.657684783062496781e+00 1.823089633617003442e-03 1.161388888888888857e+02 4.329796073581376525e+00
3.663989311092172851e+00 1.817352227903809700e-03 1.168278688524590194e+02 4.013092487616356507e+00
3.670338462676961733e+00 1.852037082036360515e-03 1.167148760330578483e+02 3.449782195971918153e+00
3.676667454351053799e+00 1.802731285318214709e-03 1.159344978165938898e+02 3.485435676666726046e+00
3.682957402673964431e+00 1.831301914300888494e-03 1.146946902654867273e+02 3.907462974410593759e+00
3.689264510226057059e+00 1.810576500315507495e-03 1.142811059907834164e+02 4.200139146561056691e+00
3.695607159299667099e+00 1.851070780809128090e-03 1.135581395348837219e+02 3.837744853395288924e+00
3.701906411334345837e+00 1.786914693256676148e-03 1.120497512437810883e+02 3.957204047639767630e+00
3.708163258087520564e+00 1.825159420261267002e-03 1.109698492462311492e+02 4.126631819594588357e+00
3.714507337749332283e+00 1.833043865117713490e-03 1.100103626943005111e+02 4.242634359367240648e+00
3.720870273368275249e+00 1.842023606415223082e-03 1.093796791443850225e+02 3.689428792138730095e+00
3.727157013165883104e+00 1.785929560704693081e-03 1.085714285714285694e+02 4.095592454214701306e+00
3.733414267292576749e+00 1.823616893326991065e-03 1.077325581395348877e+02 3.815078889548358276e+00
3.739747614563589284e+00 1.832601406324968355e-03 1.069216867469879588e+02 3.798306228778467020e+00
3.746091684029914770e+00 1.828992002129592063e-03 1.063773584905660385e+02 3.773238977854940224e+00
3.752406222021260618e+00 1.812401454337024109e-03 1.058013245033112639e+02 3.503868306593632020e+00
3.758712131096641595e+00 1.823143945980814458e-03 1.054758620689655118e+02 3.931869239863108323e+00
3.765000355804634324e+00 1.809969724265664184e-03 1.050583941605839442e+02 3.357735638720269034e+00
3.771324791207556704e+00 1.846593531196991230e-03 1.047218045112781937e+02 4.409003579850226728e+00
3.777640884128447674e+00 1.800430178895984180e-03 1.047235772357723533e+02 5.150834807429871987e+00
3.783890033752419058e+00 1.812352582976840126e-03 1.038461538461538396e+02 4.444411571213077394e+00
3.790205950757557840e+00 1.839564216382759279e-03 1.029285714285714306e+02 3.801265229754269726e+00
3.796547481197723339e+00 1.823144808823023381e-03 1.036923076923076934e+02 2.831563433739377356e+00
3.802839460639445335e+00 1.822115437231795494e-03 1.028350515463917532e+02 3.012338674790013826e+00
3.809162628389719529e+00 1.835235423465040759e-03 1.009890109890109926e+02 3.113208341178382188e+00
3.815477698903783743e+00 1.813833779597889004e-03 1.014698795180722897e+02 3.590725298940149468e+00
3.821777178949230969e+00 1.830898415393102585e-03 1.014935064935064872e+02 4.001201539895299142e+00
3.828076951026545771e+00 1.795694771849016581e-03 1.003188405797101410e+02 4.655220457156233671e+00
3.834316772867639944e+00 1.791896653628349866e-03 1.000645161290322562e+02 5.242208429618470333e+00
3.840583618544390898e+00 1.820001018717854217e-03 1.002857142857142918e+02 5.133423888237414801e+00
3.846911872181034475e+00 1.824281646184678762e-03 9.934693877551021046e+01 5.315454901322809178e+00
3.853313008086272973e+00 1.880829953221405115e-03 9.834883720930233153e+01 6.867713947310823741e+00
3.859656947796285653e+00 1.787945514535103963e-03 9.758823529411765207e+01 5.115787356489379434e+00
3.865825284683709118e+00 1.773175751446867720e-03 1.002222222222222285e+02 4.211487328059207336e+00
3.872064552013789740e+00 1.858490478498285668e-03 9.923809523809524080e+01 5.669667072814177367e+00
3.878243048288448236e+00 1.738115315901965106e-03 1.011538461538461604e+02 5.369759727085302359e+00
3.884441558101385361e+00 1.990091083924331716e-03 1.080000000000000000e+02 5.806400409400450435e+00
