# q qerr I(q) I(q)err
6.111313073595031620e-02 3.154100855865873791e-03 0.000000000000000000e+00 9.285714285714286031e-01
6.800242608866982619e-02 2.110752812487300123e-03 0.000000000000000000e+00 0.000000000000000000e+00
7.478812129850326285e-02 1.894856213165734514e-03 0.000000000000000000e+00 0.000000000000000000e+00
8.081736842982174818e-02 1.577734731020807597e-03 0.000000000000000000e+00 0.000000000000000000e+00
8.706192866790804508e-02 2.018057842609979804e-03 0.000000000000000000e+00 0.000000000000000000e+00
9.311361532868518698e-02 1.734318039620741251e-03 0.000000000000000000e+00 0.000000000000000000e+00
9.924832822165428892e-02 1.939409616079583844e-03 2.500000000000000000e-01 9.762812094883318581e-01
1.056867454532435108e-01 2.068262530006435406e-03 1.583333333333333259e+00 3.171597038997511220e+00
1.120935416356093062e-01 1.699923986068800717e-03 2.423076923076922906e+00 4.108009207021134479e+00
1.177168722532570266e-01 1.903764278506084144e-03 2.375000000000000000e+00 3.896613112691584835e+00
1.242406998858587575e-01 2.007415885574503726e-03 3.714285714285714413e+00 4.155154163499709341e+00
1.307844605212421796e-01 1.948859987027574741e-03 4.035714285714285587e+00 4.187566630599958373e+00
1.372938405551752672e-01 1.976444694498947011e-03 3.774193548387096975e+00 4.123862691259004620e+00
1.433626874055373979e-01 1.479129257371093872e-03 4.639999999999999680e+00 4.383605821695193860e+00
1.497414395840910573e-01 2.132896554945924294e-03 3.810810810810810967e+00 4.279070644511008048e+00
1.562016171858009728e-01 1.470810848565314282e-03 4.629629629629629761e+00 4.525343964524300766e+00
1.620883487451751925e-01 1.817360580555445800e-03 4.363636363636363313e+00 4.677476657214644007e+00
1.684939590642719198e-01 1.975568076388520972e-03 4.540540540540540349e+00 4.763968734238661185e+00
1.749358117034872373e-01 1.810730169671130639e-03 5.000000000000000000e+00 5.090607597751541036e+00
1.813634234827302405e-01 1.982290824745188643e-03 4.317073170731707599e+00 4.882010586291666066e+00
1.877608813777307539e-01 1.710969833005861022e-03 4.702702702702702631e+00 5.046894770301653566e+00
1.936838392192468117e-01 1.708352888559126238e-03 4.605263157894737169e+00 5.175052022434464938e+00
1.998200724089964908e-01 1.901042836663710675e-03 4.767441860465115866e+00 5.221694148287365778e+00
2.064988844748374130e-01 2.083185659227047067e-03 4.937500000000000000e+00 5.388548815157317762e+00
2.131062600015138364e-01 1.923054290541973939e-03 4.106382978723404520e+00 4.618589791417423207e+00
2.193208008558340527e-01 1.649587748772136844e-03 4.139534883720930480e+00 4.396886651122945189e+00
2.255197753110727010e-01 1.943898002345461392e-03 3.705882352941176627e+00 4.384227786873901245e+00
2.319084130262620835e-01 1.853433278599466881e-03 4.280000000000000249e+00 4.788235583176749799e+00
2.380456302514551703e-01 1.717913041466973250e-03 4.270833333333333037e+00 4.986962168160759212e+00
2.441826744061198484e-01 1.910984005326162374e-03 4.145454545454545503e+00 4.637753802281714854e+00
2.508567628905887248e-01 1.865639566994751813e-03 3.500000000000000000e+00 4.491928244622648059e+00
2.571616352083493928e-01 2.042758540577210586e-03 2.792682926829268109e+00 4.167628284831012664e+00
2.636090936505812721e-01 1.759536909171210452e-03 2.688311688311688208e+00 4.050345170809347195e+00
2.696276322290375727e-01 1.767913466712890637e-03 2.487499999999999822e+00 3.985089396738798584e+00
2.756934411426098519e-01 1.847457432374286813e-03 2.523809523809523725e+00 3.800808483035754470e+00
2.820483295007140123e-01 1.942127748479487680e-03 2.494382022471909988e+00 3.654674662404190144e+00
2.885873542857223528e-01 1.999902870285049771e-03 2.231578947368420884e+00 3.401449910824040579e+00
2.950059364807982032e-01 1.753155416080761590e-03 2.290697674418604723e+00 3.392918850107981221e+00
3.012776628394395750e-01 1.916275679195857595e-03 2.157894736842105310e+00 3.347881456877987993e+00
3.076468654533095481e-01 1.858480647863890167e-03 2.311827956989247479e+00 3.389212515513754465e+00
3.139397285054469910e-01 1.849733180513128640e-03 2.148936170212766061e+00 3.258481289939451297e+00
3.202097007249891103e-01 1.889977811219999311e-03 2.204081632653061007e+00 3.270340506798030678e+00
3.264390569218261762e-01 1.757358001834326191e-03 2.215053763440860024e+00 3.216078521908626531e+00
3.326951465344144543e-01 1.930481388006281569e-03 2.028846153846153744e+00 3.023851192685076406e+00
3.390239669727912464e-01 1.785238221274862988e-03 2.153061224489795755e+00 3.041980327824097774e+00
3.452290355408559885e-01 1.822729964848564038e-03 1.901960784313725394e+00 2.774042086261050422e+00
3.515217579766085620e-01 1.894166946962649433e-03 1.895238095238095166e+00 2.718092568490696248e+00
3.581115149106128270e-01 1.984833837990382030e-03 1.858407079646017701e+00 2.716050164983667248e+00
3.646365217867122976e-01 1.807385512883236643e-03 1.822429906542056166e+00 2.653596744696865795e+00
3.707522342694583029e-01 1.646676631311451595e-03 1.840000000000000080e+00 2.674471910489994997e+00
3.768404479121448269e-01 1.835047814059704218e-03 1.711711711711711770e+00 2.624360044662774172e+00
3.831651369708888866e-01 1.834489868729198949e-03 1.738738738738738743e+00 2.520478579899299465e+00
3.894643253735652899e-01 1.853753096359237081e-03 1.610619469026548733e+00 2.450352830122677794e+00
3.958807651630259494e-01 1.912159574900255954e-03 1.616666666666666696e+00 2.390926133902462780e+00
4.022473572087105209e-01 1.746533598099251966e-03 1.567567567567567544e+00 2.353473206439947507e+00
4.083991683103055381e-01 1.862831917861469243e-03 1.504201680672268893e+00 2.213883049829451721e+00
4.147868792651558945e-01 1.850918924272050396e-03 1.586776859504132275e+00 2.228525843837244835e+00
4.211381020132339281e-01 1.813003092898375071e-03 1.487603305785123897e+00 2.177493836304553732e+00
4.273404438934948479e-01 1.765577699919095717e-03 1.521008403361344463e+00 2.120762680701636427e+00
4.337195733954657406e-01 1.911235613422362228e-03 1.507692307692307665e+00 2.123132663705286749e+00
4.400834723796714920e-01 1.795304431444431784e-03 1.491935483870967749e+00 2.118436487829092663e+00
4.463380503116383125e-01 1.781136916513354146e-03 1.507936507936507908e+00 2.110066575343287898e+00
4.525475293404462862e-01 1.782735370135076804e-03 1.377952755905511806e+00 2.014194159944922013e+00
4.588781844142776345e-01 1.863542184770878652e-03 1.514925373134328401e+00 2.078649595051186516e+00
4.652813857520213814e-01 1.809454061223974295e-03 1.375939849624060241e+00 2.063974826754641168e+00
4.715886271752884884e-01 1.786725641485754782e-03 1.417910447761194126e+00 2.055235261568983063e+00
4.778700308571910971e-01 1.749120838384908864e-03 1.255639097744360999e+00 1.943881687073991227e+00
4.841075358786299798e-01 1.812598873705853009e-03 1.289855072463768071e+00 1.955474760126584943e+00
4.904685449060671165e-01 1.813034819841214708e-03 1.378571428571428559e+00 1.996987527170230425e+00
4.967988078032400945e-01 1.775169993053363985e-03 1.297872340425531901e+00 1.958410185380606849e+00
5.030461340587593089e-01 1.710738770771227935e-03 1.297101449275362306e+00 1.833891763493701754e+00
5.093789740337634209e-01 1.844995629980458740e-03 1.167785234899328950e+00 1.686848366578423741e+00
5.157895609665918979e-01 1.772173611217854692e-03 1.143835616438356073e+00 1.572719674904069276e+00
5.220653538623039047e-01 1.710912446064493482e-03 1.153846153846153744e+00 1.612384827066436266e+00
5.282420832211931483e-01 1.776221308977217429e-03 1.202702702702702631e+00 1.666687971619368769e+00
5.345849814872509764e-01 1.797460663252185451e-03 1.184210526315789380e+00 1.654392708959110170e+00
5.409400198384390901e-01 1.769240412124692928e-03 1.091503267973856106e+00 1.628605517453305396e+00
5.471612929737256215e-01 1.671871176479489780e-03 1.114864864864864913e+00 1.611114609479870063e+00
5.535187503546902255e-01 1.843477994232445120e-03 1.086419753086419693e+00 1.582848938008549533e+00
5.599303633336802921e-01 1.774845713676194252e-03 1.082802547770700619e+00 1.557816472487638659e+00
5.661980099607780703e-01 1.715649351238413218e-03 1.038961038961038863e+00 1.526402260995244342e+00
5.724333289920446877e-01 1.764199560704661452e-03 9.812499999999999556e-01 1.431618402368452836e+00
5.786575496797814466e-01 1.687338640378493104e-03 9.935064935064935598e-01 1.357965946886254605e+00
5.849918082512260975e-01 1.882166412490617838e-03 8.953488372093023617e-01 1.287262346336742747e+00
5.913559560974818163e-01 1.673563701773732749e-03 8.980891719745223156e-01 1.280096323812891512e+00
5.976003341774964728e-01 1.789272139650604403e-03 9.526627218934911046e-01 1.390104428619555632e+00
6.039710484280985670e-01 1.760471037718898532e-03 9.880952380952381375e-01 1.382208993126681218e+00
6.103455122609070527e-01 1.778153705054047679e-03 9.590643274853800637e-01 1.358689845841316135e+00
6.165941547084902163e-01 1.709282904712068618e-03 9.281437125748502881e-01 1.290374007573769966e+00
6.227886440901039267e-01 1.708031916550016484e-03 9.166666666666666297e-01 1.281159259272260487e+00
6.292222757675741684e-01 1.895555695838723603e-03 9.304812834224599483e-01 1.318374339186006994e+00
6.355837393651907474e-01 1.609918394456906487e-03 9.878787878787879118e-01 1.381618805393143301e+00
6.417201133152361514e-01 1.735489606861494215e-03 8.876404494382021948e-01 1.316789698168763456e+00
6.480234646877054416e-01 1.746502386866512820e-03 8.483146067415729963e-01 1.221881053509563442e+00
6.543745591304535036e-01 1.808595843625667669e-03 7.608695652173913526e-01 1.118615046353376163e+00
6.607410482875138991e-01 1.776914150084337417e-03 7.173913043478260532e-01 1.083527198978537998e+00
6.669765730033264672e-01 1.670208017253243388e-03 7.272727272727272929e-01 1.101745422140074426e+00
6.731673103258457580e-01 1.796482171393593615e-03 7.021276595744680993e-01 1.061966453260039023e+00
6.795850853652600776e-01 1.822834825668488831e-03 8.010471204188481797e-01 1.119182661977419890e+00
6.858902177354958551e-01 1.747430487391250960e-03 7.849462365591397539e-01 1.141077579041876122e+00
6.921278880332987216e-01 1.765781770802452586e-03 7.777777777777777901e-01 1.101812946714334052e+00
6.985070946107704293e-01 1.847715388967816497e-03 6.969696969696970168e-01 1.006331349720387625e+00
7.048037128132643714e-01 1.757666077632949074e-03 6.825396825396825573e-01 9.529539722361402010e-01
7.109847861020758275e-01 1.767854622430342420e-03 6.562500000000000000e-01 9.518861484354804725e-01
7.172345948602801835e-01 1.822657136245004524e-03 6.818181818181817677e-01 9.940133010216196663e-01
7.236608500653414211e-01 1.906739358311473767e-03 6.634146341463414975e-01 9.485265193979500742e-01
7.299519259881649402e-01 1.814756391122580772e-03 6.683673469387755306e-01 9.951726465383575748e-01
7.362298620906445601e-01 1.872001608046580190e-03 6.372549019607842702e-01 9.645534312827397372e-01
7.427109241448597299e-01 1.961252361706546793e-03 6.261682242990653791e-01 9.684741495549515911e-01
7.489749171607754663e-01 1.795506848231544564e-03 6.153846153846154188e-01 9.023309722224723828e-01
7.553119902396251417e-01 1.968290517240121971e-03 5.525114155251141801e-01 8.295309510795992880e-01
7.617428847945948434e-01 1.878647625832918257e-03 5.507246376811594235e-01 8.391625568514100575e-01
7.679897535333021219e-01 1.889655825210407886e-03 5.598086124401914221e-01 8.244534247334570631e-01
7.742716946001383382e-01 1.890740870187222538e-03 5.492957746478873693e-01 8.086437092740960120e-01
7.806130493972306406e-01 1.874127862848933099e-03 5.613207547169811740e-01 8.653828658171951460e-01
7.869955317179381238e-01 1.962138593108325030e-03 6.383928571428570953e-01 1.035848975232295466e+00
7.933337815560531636e-01 1.823456314192357453e-03 6.476190476190476497e-01 1.020204061220406855e+00
7.995722808394026826e-01 1.873920736445982161e-03 5.791855203619910020e-01 9.570964738439203812e-01
8.059029702364099990e-01 1.855844282913126459e-03 6.027397260273972268e-01 9.581210109614086701e-01
8.122482529694946551e-01 1.899897789708842157e-03 5.991189427312775262e-01 9.734785774049783402e-01
8.185971333973350861e-01 1.831057107996742058e-03 5.919282511210762765e-01 9.852212860699302022e-01
8.248840800988579414e-01 1.805078930334647752e-03 5.695067264573990817e-01 1.013899262794790035e+00
8.311527541867054225e-01 1.843524136775542745e-03 5.589519650655021543e-01 9.779514736817656040e-01
8.375116084758876811e-01 1.829773299230467044e-03 5.521739130434782927e-01 1.049691646144179646e+00
8.438261475186588090e-01 1.817550564165925373e-03 5.172413793103448620e-01 1.026477647820172923e+00
8.500843452560248314e-01 1.755513946144033992e-03 5.840707964601770108e-01 1.139567387375766350e+00
8.563647400134730692e-01 1.844487251387733453e-03 5.518672199170124859e-01 1.066567626526404133e+00
8.626696591174244366e-01 1.710203360544058351e-03 5.657894736842105088e-01 1.052521924113074325e+00
8.689830853488446083e-01 1.844123492424595270e-03 5.650406504065040858e-01 1.068819708883198549e+00
8.753179752476163422e-01 1.741457950302257533e-03 5.872340425531914487e-01 1.086765523400502698e+00
8.815756228481118617e-01 1.752464905610253906e-03 5.477178423236515048e-01 1.062856408673781505e+00
8.877944678552249780e-01 1.716242394594354789e-03 5.738396624472573704e-01 1.137269744061579324e+00
8.941407927930166144e-01 1.839522330085644050e-03 5.691699604743083452e-01 1.075432986892781662e+00
9.005003621585947471e-01 1.752218829319661820e-03 5.061224489795917991e-01 1.017694350441452400e+00
9.067627482844141662e-01 1.720498064613873055e-03 4.918032786885245811e-01 9.906849134254510636e-01
9.130278025298368405e-01 1.789374596252915357e-03 4.642857142857143016e-01 9.535706854524186316e-01
9.193563827426239898e-01 1.786117629316656989e-03 4.603174603174602919e-01 9.366088188870700382e-01
9.256709965929463824e-01 1.773964252230773864e-03 4.156862745098039436e-01 8.819606971290031572e-01
9.319487846442510159e-01 1.740175819907428248e-03 4.680000000000000271e-01 8.825236540739287427e-01
9.382375230166524194e-01 1.835219923763222079e-03 4.694656488549618367e-01 8.946942648929985253e-01
9.445114335627492475e-01 1.754301698834087597e-03 4.584980237154150373e-01 8.740273583889468512e-01
9.507739483173833772e-01 1.796477233495237351e-03 4.061302681992337016e-01 7.615177470531706572e-01
9.571000001339345920e-01 1.844157663989784944e-03 3.773584905660377631e-01 7.336687583103235211e-01
9.634651872700409347e-01 1.860525514413665987e-03 3.796992481203007586e-01 7.634263759746066080e-01
9.697902983397413967e-01 1.869026222830578836e-03 3.646616541353383534e-01 7.306205036214481474e-01
9.761731987705594138e-01 1.898719003246270758e-03 3.948339483394833760e-01 7.566375449647200213e-01
9.824546988499620603e-01 1.850375251942234242e-03 4.000000000000000222e-01 7.623201922235158801e-01
9.887603507672997338e-01 1.885371791598095068e-03 4.448529411764705621e-01 8.349393405644182087e-01
9.951547945742836854e-01 1.923480157877882840e-03 4.519572953736654686e-01 9.087423963916879677e-01
1.001497743307979915e+00 1.816985016266823736e-03 4.419475655430711858e-01 9.165399330127239619e-01
1.007730073445106012e+00 1.872875193246743668e-03 3.776978417266186883e-01 8.261016722409234569e-01
1.014110590476311025e+00 1.881534321868284657e-03 3.226950354609929295e-01 7.243423204489020106e-01
1.020442888611849064e+00 1.823625195420996601e-03 3.369175627240143522e-01 7.821179467805512431e-01
1.026691701700078063e+00 1.782759485576686145e-03 3.586956521739130266e-01 8.293699068232737170e-01
1.033057845114525142e+00 1.884320384582664851e-03 3.401360544217686965e-01 7.744353453473584725e-01
1.039437792018165441e+00 1.793463056649077922e-03 3.462897526501766965e-01 7.805268991250161603e-01
1.045681248368910410e+00 1.745618337461533540e-03 3.439716312056737557e-01 7.437177155619069113e-01
1.051944871571292683e+00 1.801987856022948175e-03 3.586206896551724088e-01 7.857833099690535450e-01
1.058324809813473877e+00 1.829265674919061668e-03 3.232323232323232598e-01 7.230987593690842985e-01
1.064596602572098316e+00 1.714864743882408334e-03 2.711267605633803091e-01 6.290904629331632858e-01
1.070868750588993112e+00 1.792957436204007347e-03 2.323232323232323204e-01 5.951601097484259251e-01
1.077195490251847465e+00 1.798916779777443367e-03 2.408026755852842871e-01 5.809201846909961553e-01
1.083505800573759448e+00 1.740543057611223946e-03 3.174061433447099012e-01 6.857860511061474318e-01
1.089676915900379850e+00 1.748165881083384946e-03 2.993197278911564618e-01 6.597236683773314292e-01
1.096052400832523421e+00 1.863573573199493825e-03 2.747603833865814860e-01 6.052099876177442495e-01
1.102364289960501065e+00 1.744372504095847640e-03 2.372881355932203451e-01 5.693502649662849358e-01
1.108625070827478076e+00 1.829094711995288541e-03 2.312703583061889168e-01 5.673272238204682960e-01
1.114924075445366869e+00 1.842999932655674591e-03 2.467532467532467522e-01 5.962368637598568499e-01
1.121282665432693726e+00 1.762017027877181303e-03 2.709923664122137477e-01 5.663278470531729614e-01
1.127553932619258736e+00 1.851826979229859085e-03 2.936802973977695186e-01 5.851093273210734580e-01
1.133905639228342421e+00 1.803927404845938115e-03 3.176470588235293935e-01 6.674159572387612371e-01
1.140144523104706709e+00 1.820967272376473748e-03 3.267716535433070613e-01 7.104526792728836915e-01
1.146455214771981312e+00 1.831860927088285957e-03 3.426294820717131207e-01 7.649609890943931401e-01
1.152869066430118439e+00 1.902391342003174283e-03 3.166023166023165802e-01 7.039744103896429239e-01
1.159252377890596986e+00 1.791659613503928782e-03 3.319502074688796545e-01 7.224208196786844338e-01
1.165575291556828930e+00 1.872439892399787795e-03 2.509960159362549792e-01 6.955700663334302147e-01
1.171828433925186763e+00 1.747387590499659572e-03 2.380952380952380820e-01 6.451378494355088922e-01
1.178029580193284076e+00 1.845903894892485285e-03 2.139917695473251003e-01 5.986487519422398762e-01
1.184400904434957269e+00 1.829516060217846983e-03 2.301255230125522910e-01 6.290499636159256891e-01
1.190737654720273042e+00 1.816225366119703435e-03 2.151898734177215278e-01 6.101826050579027827e-01
1.196977477342464180e+00 1.780548390738201196e-03 2.183406113537117998e-01 5.884674420235116443e-01
1.203312963818603976e+00 1.874247930763579166e-03 2.438016528925619764e-01 6.260841972402866329e-01
1.209645773529357093e+00 1.750259837788138012e-03 2.477876106194690231e-01 6.795745722034686187e-01
1.215952225700388523e+00 1.837678281197498587e-03 2.161016949152542443e-01 6.250251359495888615e-01
1.222254898926581568e+00 1.775628514659025698e-03 2.059925093632958837e-01 6.054570950830863163e-01
1.228537298751265050e+00 1.780223345631782141e-03 1.702898550724637750e-01 5.747295099973862564e-01
1.234759587745337228e+00 1.795376270296014523e-03 1.756272401433691677e-01 5.440123485616119581e-01
1.241110555825225781e+00 1.895169703334604900e-03 1.744966442953020114e-01 5.406330838428544672e-01
1.247523323486311897e+00 1.874537877840588536e-03 1.756756756756756854e-01 5.842543773920962913e-01
1.253854431820907944e+00 1.857283623330970761e-03 1.744966442953020114e-01 5.529077229858353482e-01
1.260138295168494293e+00 1.856490137450314505e-03 1.461794019933554956e-01 4.948716593053933965e-01
1.266501421045549414e+00 1.881588491645209797e-03 1.125401929260450157e-01 4.134928213567333199e-01
1.272807251993681055e+00 1.824447191781883651e-03 1.180327868852459050e-01 4.430477621405605193e-01
1.279100636071537789e+00 1.831925956271344968e-03 1.305732484076433109e-01 4.912517161399961863e-01
1.285385940199903265e+00 1.796864974607813087e-03 1.346153846153846090e-01 5.078889479324714129e-01
1.291734086560349049e+00 1.833790085687247952e-03 1.472392638036809920e-01 5.168324793007937901e-01
1.297999116585571544e+00 1.712347548001254965e-03 1.682847896440129443e-01 5.379376767842745100e-01
1.304332283077917598e+00 1.862331657852500611e-03 1.150442477876106179e-01 4.229002217936628227e-01
1.310629912671008812e+00 1.689758514739712848e-03 1.121794871794871834e-01 4.050399530621570099e-01
1.316859893871710430e+00 1.807323329610554348e-03 1.074626865671641784e-01 3.794686228554197127e-01
1.323169508333509325e+00 1.772103529485381237e-03 1.155015197568389079e-01 3.887726919226621725e-01
1.329416719622044551e+00 1.761213072716576004e-03 1.238670694864048294e-01 4.187642488734841795e-01
1.335676763851219473e+00 1.808340606324402439e-03 1.160714285714285754e-01 4.175797817778775789e-01
1.342102166253144047e+00 1.916040745002256648e-03 1.098591549295774711e-01 4.139311778976153544e-01
1.348432554966731090e+00 1.804515701739407276e-03 1.117824773413897271e-01 4.361872391534766247e-01
1.354697325729501189e+00 1.895450207138361931e-03 1.133144475920679906e-01 4.375463926641998680e-01
1.361035554581970564e+00 1.836151892644552735e-03 1.133720930232558072e-01 3.913745175404105825e-01
1.367445372286436589e+00 1.911657172750392099e-03 8.219178082191780366e-02 3.456835133279453354e-01
1.373833054624600258e+00 1.794265400870382644e-03 7.826086956521739746e-02 3.273309604298906272e-01
1.380048052911932777e+00 1.791287036868802413e-03 7.692307692307692735e-02 3.417734875749094958e-01
1.386332670155489666e+00 1.806335848089170130e-03 7.303370786516853730e-02 3.522565989819387289e-01
1.392624520144640332e+00 1.796075039907524609e-03 9.444444444444444198e-02 3.975037852137501271e-01
1.398923000198597277e+00 1.771229759338340285e-03 9.269662921348315043e-02 3.823115231651479928e-01
1.405184482923453881e+00 1.808998902686751115e-03 8.152173913043478382e-02 3.672602351742761395e-01
1.411475199677901360e+00 1.734371386327675756e-03 9.831460674157303792e-02 4.359456445178910289e-01
1.417706081410672780e+00 1.817237095201347432e-03 1.048387096774193589e-01 4.891734553729933932e-01
1.424046144262549829e+00 1.816956160244514703e-03 1.056910569105691117e-01 4.742237697977486066e-01
1.430457268966005335e+00 1.925855730949348329e-03 1.413881748071979527e-01 4.222751407551381120e-01
1.436865665354877475e+00 1.843763745384080412e-03 2.096774193548387177e-01 4.914725479094377292e-01
1.443084111958556903e+00 1.831535442318516687e-03 2.768817204301075030e-01 6.238065261221654723e-01
1.449466238371406979e+00 1.910439897345804971e-03 3.113924050632911333e-01 7.446180340711580081e-01
1.455780432464144347e+00 1.769262236301017126e-03 3.621621621621621823e-01 7.949714127656930529e-01
1.462109939136078340e+00 1.873282905934200038e-03 3.784461152882205304e-01 7.855733705824909929e-01
1.468414112563870999e+00 1.734923018383166060e-03 4.346666666666666456e-01 8.174496926416935372e-01
1.474680891373796765e+00 1.804015195942032307e-03 4.467005076142132047e-01 8.427466142056641019e-01
1.480924591063775386e+00 1.742163032935032654e-03 4.986945169712793668e-01 8.824485898759406588e-01
1.487138550370334267e+00 1.742602934721402272e-03 5.372750642673521648e-01 9.199960693897107911e-01
1.493462591150057195e+00 1.833511633313982111e-03 5.965346534653465094e-01 9.696274715502563035e-01
1.499809278721849770e+00 1.805357266360340307e-03 6.095717884130982256e-01 9.563432651443775079e-01
1.506175762378094918e+00 1.888906516140883814e-03 6.870415647921760405e-01 1.033223599705428430e+00
1.512543466733061504e+00 1.879653113941155348e-03 7.034313725490196623e-01 1.063911838741887994e+00
1.518927121842702510e+00 1.865813122140227640e-03 7.279411764705882026e-01 1.090881784636055229e+00
1.525176469146275027e+00 1.826629940430822378e-03 7.866004962779156173e-01 1.164438163308456176e+00
1.531416651941075235e+00 1.798854978931840659e-03 7.995049504950495489e-01 1.214148650453273914e+00
1.537728221615372926e+00 1.856986876758172280e-03 8.581560283687943436e-01 1.271944508032555765e+00
1.544096010846849332e+00 1.769518617434322075e-03 9.051094890510948954e-01 1.340193162133650251e+00
1.550405005344789089e+00 1.809055686031393537e-03 9.172576832151300152e-01 1.332465388242654702e+00
1.556696834359960313e+00 1.740139413919524446e-03 9.684466019417475868e-01 1.389592253902135699e+00
1.562969221032702194e+00 1.804120915253569534e-03 9.481132075471697673e-01 1.354418523648375672e+00
1.569251838380229191e+00 1.803338776033149233e-03 1.033412887828162319e+00 1.446389325955916849e+00
1.575556094315494926e+00 1.863019847936644557e-03 1.123543123543123468e+00 1.523380914807099806e+00
1.581892448177514066e+00 1.865480693804838323e-03 1.145833333333333259e+00 1.553787437597105914e+00
1.588269483401412163e+00 1.861295980786164313e-03 1.221198156682027580e+00 1.613584451267254583e+00
1.594574325321363339e+00 1.830133252637398044e-03 1.194444444444444420e+00 1.584693210692992071e+00
1.600916934751582588e+00 1.832077894544300927e-03 1.202733485193621776e+00 1.559860584056274257e+00
1.607201343968552854e+00 1.780442356845074459e-03 1.231481481481481399e+00 1.594321036648904233e+00
1.613445462524496721e+00 1.775524639999344866e-03 1.240825688073394550e+00 1.631790068206721234e+00
1.619730849749851931e+00 1.787630240083115185e-03 1.261851015801354503e+00 1.649192382678694502e+00
1.625979803600224649e+00 1.755895091839796123e-03 1.278160919540229923e+00 1.677861727383634483e+00
1.632226613292544926e+00 1.821174808670054370e-03 1.257270693512304360e+00 1.644372915120286827e+00
1.638606704061473573e+00 1.894452323361247963e-03 1.312364425162689807e+00 1.612271196299158271e+00
1.645050487946952522e+00 1.887301666918968484e-03 1.271739130434782705e+00 1.578596203446267721e+00
1.651415996904310735e+00 1.851783837096881687e-03 1.287280701754385914e+00 1.591268326731145377e+00
1.657788871265904573e+00 1.852242853945953917e-03 1.291576673866090763e+00 1.590284165555961859e+00
1.664006124760511351e+00 1.741113674427757210e-03 1.328798185941043153e+00 1.623699941299269645e+00
1.670281873961185770e+00 1.842366346193471905e-03 1.315010570824524327e+00 1.592383055681350079e+00
1.676541801276667298e+00 1.721555322686186195e-03 1.374439461883408153e+00 1.633343052649939953e+00
1.682793682471841024e+00 1.824670227224382997e-03 1.341772151898734222e+00 1.676327286669999195e+00
1.689107465299970467e+00 1.791603935857043455e-03 1.368763557483731130e+00 1.688726791177053599e+00
1.695415952935033443e+00 1.877357617877282179e-03 1.459290187891440604e+00 1.754454782615304076e+00
1.701806617780016628e+00 1.875253898477295287e-03 1.461377870563674408e+00 1.753312920512449802e+00
1.708145235544118012e+00 1.851238026496159058e-03 1.513684210526315743e+00 1.775965111583654776e+00
1.714469347376187613e+00 1.845626368464784459e-03 1.507246376811594235e+00 1.822468398711545978e+00
1.720739519194126599e+00 1.771881702320935673e-03 1.544871794871794934e+00 1.847614865854583899e+00
1.726990948287859817e+00 1.820993782645452704e-03 1.551020408163265252e+00 1.909576034901349084e+00
1.733361150263370787e+00 1.784216608021570085e-03 1.789256198347107363e+00 2.843832455322524932e+00
1.739571674833123582e+00 1.760427731239605715e-03 2.515723270440251458e+00 9.135555874134773546e+00
1.745887440247851030e+00 1.853392121839796862e-03 2.949899799599198236e+00 1.427027246207524414e+01
1.752250177420427102e+00 1.860925844240075020e-03 2.491902834008097312e+00 8.903436028051626039e+00
1.758607387389414800e+00 1.864192030273802104e-03 1.774000000000000021e+00 2.621158522485820708e+00
1.764972322429467777e+00 1.851098948525789619e-03 1.673999999999999932e+00 1.898175966553149019e+00
1.771273520234028620e+00 1.808016239517707931e-03 1.671370967741935498e+00 1.928722228026215957e+00
1.777586992161852564e+00 1.807004964737956481e-03 1.699009900990098965e+00 1.955924493294226130e+00
1.783840233931820451e+00 1.746107465683986813e-03 1.784114052953156726e+00 2.003510261504833689e+00
1.790071520275328565e+00 1.795583184790444783e-03 1.789370078740157410e+00 2.031373981560395503e+00
1.796393698957722052e+00 1.819993601147859141e-03 1.845849802371541504e+00 2.046795497134394015e+00
1.802712928873270393e+00 1.883216042231023422e-03 1.846743295019157127e+00 2.022661938113680336e+00
1.809114577024696358e+00 1.850157529878445435e-03 1.831395348837209225e+00 2.035614486724190986e+00
1.815345782948464493e+00 1.803540499391122600e-03 1.891304347826086918e+00 2.111942815861004075e+00
1.821700705453981772e+00 1.863872113208649628e-03 1.852611940298507509e+00 2.097977417614565354e+00
1.828034416566336029e+00 1.759461126105644731e-03 1.872047244094488194e+00 2.102939037324949467e+00
1.834289862490237510e+00 1.817049905439401892e-03 1.838041431261770331e+00 2.069375664154994521e+00
1.840620947190598100e+00 1.780340576699249600e-03 1.884615384615384581e+00 2.072234736880387729e+00
1.846876290479544158e+00 1.833628160635640113e-03 1.988657844990548096e+00 2.109444333661030679e+00
1.853225331533147280e+00 1.864396810776891523e-03 2.049999999999999822e+00 2.166965791317608581e+00
1.859586416204100923e+00 1.843230203276794224e-03 2.054205607476635720e+00 2.130105628108240445e+00
1.865884580336470755e+00 1.827085395033201023e-03 2.055865921787709549e+00 2.157823187671241705e+00
1.872200528994375501e+00 1.799198018262535481e-03 1.992592592592592693e+00 2.134358678491017347e+00
1.878453452628845000e+00 1.760356359008985331e-03 2.097928436911487893e+00 2.190978614136523284e+00
1.884712324747962020e+00 1.805687576808031941e-03 2.094890510948905327e+00 2.240617332140967921e+00
1.891113706724730337e+00 1.861939656346446982e-03 2.172661870503596937e+00 2.256723416743871891e+00
1.897400945427566432e+00 1.833350088909791505e-03 2.220588235294117752e+00 2.307177897982985559e+00
1.903772875545957088e+00 1.875180743362649160e-03 2.246478873239436513e+00 2.365293149736340528e+00
1.910018917854334752e+00 1.739883276586547947e-03 2.283553875236294939e+00 2.329944169881176030e+00
1.916236012056648175e+00 1.833205283437960029e-03 2.159649122807017374e+00 2.269798499035418970e+00
1.922638163561010805e+00 1.793373418488206777e-03 2.135714285714285676e+00 2.241580050421792869e+00
1.928888348891847349e+00 1.792288115248428593e-03 2.214028776978417046e+00 2.275038383863301483e+00
1.935240631371640818e+00 1.865766417879262265e-03 2.313148788927335442e+00 2.358314899685364896e+00
1.941608872090050619e+00 1.856644915843207438e-03 2.319859402460457076e+00 2.337177728187672443e+00
1.947917338414854704e+00 1.837601359788319485e-03 2.309982486865148843e+00 2.336957728032859283e+00
1.954236834815996637e+00 1.805754229573221887e-03 2.312937062937062915e+00 2.355360350883193732e+00
1.960488135501994522e+00 1.772905664188001006e-03 2.343362831858406992e+00 2.314146939847575357e+00
1.966755922696415082e+00 1.810201296061439468e-03 2.359724612736660898e+00 2.342519231952373993e+00
1.973091583736556354e+00 1.814240900008777741e-03 2.386206896551724022e+00 2.364929051231829504e+00
1.979420480567132490e+00 1.865397302840512408e-03 2.502546689303904781e+00 2.381218505989913137e+00
1.985762243830389018e+00 1.849873766110382307e-03 2.374576271186440657e+00 2.315970060818673293e+00
1.992143605840229093e+00 1.840662096304069391e-03 2.455611390284757167e+00 2.418012152416571414e+00
1.998372952698491245e+00 1.738412627792555948e-03 2.490333919156414666e+00 2.450453553826947406e+00
2.004614638405731508e+00 1.821010887715033720e-03 2.450331125827814649e+00 2.369075134914180314e+00
2.010981699228176822e+00 1.807963355431743604e-03 2.486531986531986593e+00 2.401906785982781845e+00
2.017216781415232862e+00 1.822968187424302972e-03 2.618887015177065791e+00 2.498055686574994105e+00
2.023555507756473748e+00 1.866836436713831520e-03 2.479674796747967314e+00 2.408648242755049296e+00
2.029945947492921121e+00 1.842053164818473936e-03 2.527960526315789380e+00 2.436716348920602293e+00
2.036236367431154548e+00 1.802040352124230577e-03 2.560330578512396649e+00 2.458786996667229552e+00
2.042538823796997693e+00 1.786279422623429517e-03 2.484400656814449881e+00 2.398202051940568236e+00
2.048720173306640469e+00 1.747373060808409071e-03 2.428813559322033910e+00 2.360314178688943887e+00
2.055017041239767028e+00 1.892889576395914968e-03 2.557120500782472661e+00 2.423871314128001497e+00
2.061465280497128294e+00 1.850343878148330047e-03 2.599358974358974450e+00 2.489220060685556124e+00
2.067778354784032935e+00 1.826644103880053095e-03 2.668276972624798571e+00 2.543133008025929787e+00
2.074107962816127415e+00 1.810449409964311413e-03 2.619047619047619069e+00 2.497360662713223434e+00
2.080392027050733006e+00 1.757304311173108879e-03 2.599348534201954219e+00 2.486458140529553607e+00
2.086560915145909245e+00 1.789004268885935290e-03 2.643435980551053444e+00 2.501279851229808227e+00
2.092907509218693285e+00 1.897916204239676529e-03 2.682926829268292845e+00 2.484933780868297415e+00
2.099341076602548206e+00 1.841856996552926774e-03 2.676562500000000178e+00 2.529428356862475802e+00
2.105598503643897335e+00 1.780460926307301031e-03 2.701277955271565556e+00 2.549146400885724084e+00
2.111872942412509335e+00 1.813036870717739954e-03 2.672839506172839386e+00 2.482442922278081721e+00
2.118179840511383194e+00 1.773074262998883873e-03 2.648818897637795100e+00 2.460182258490919871e+00
2.124489700938873238e+00 1.854176769044688739e-03 2.714067278287461971e+00 2.492264683838560924e+00
2.130866139955553962e+00 1.876679961187130126e-03 2.653555219364599260e+00 2.476613061187996845e+00
2.137196345481136905e+00 1.803165093871285981e-03 2.670278637770898023e+00 2.459404024463326621e+00
2.143477781291089013e+00 1.808033309626025679e-03 2.642748091603053240e+00 2.429163083198327744e+00
2.149749346762158453e+00 1.787076492040512573e-03 2.658986175115207296e+00 2.401661584654540604e+00
2.156014428448592479e+00 1.811767013668930289e-03 2.709284627092846343e+00 2.417019388021698134e+00
2.162388958755252943e+00 1.899773100682969557e-03 2.743065693430656982e+00 2.478969242980959109e+00
2.168776559916051561e+00 1.828625003914755194e-03 2.705705705705705899e+00 2.460200931765675225e+00
2.175079146577416189e+00 1.799027495536281414e-03 2.686567164179104683e+00 2.430178935627347769e+00
2.181358965593887422e+00 1.775037425494343461e-03 2.704819277108433617e+00 2.451594452150847037e+00
2.187625576602315824e+00 1.830837683859201127e-03 2.807692307692307487e+00 2.519100904552868503e+00
2.193923842198696850e+00 1.837507381709080519e-03 2.891336270190895785e+00 2.533432900585378178e+00
2.200310743338333541e+00 1.859271066102410235e-03 2.830703012912481942e+00 2.571461759187194662e+00
2.206637920896229677e+00 1.789161753318371274e-03 2.823703703703703827e+00 2.583378334932608045e+00
2.212855268310565560e+00 1.778695396750237757e-03 2.880706921944035326e+00 2.561818311237736623e+00
2.219155297956861617e+00 1.826812665150635666e-03 2.873381294964028942e+00 2.516629850835777393e+00
2.225534449623195243e+00 1.883537061579874895e-03 2.875881523272214579e+00 2.491722107873372227e+00
2.231816049321749151e+00 1.789850136339156059e-03 2.832599118942731309e+00 2.509818867360356975e+00
2.238124350048766420e+00 1.838516226422660244e-03 2.773743016759776747e+00 2.483498644891624973e+00
2.244461256680506001e+00 1.769483755913013904e-03 2.759768451519537091e+00 2.420032570675724859e+00
2.250672411056880762e+00 1.815340560525242463e-03 2.829268292682926678e+00 2.430530403385618321e+00
2.256976265699253581e+00 1.875232856265233962e-03 2.853591160220994460e+00 2.437997506713212914e+00
2.263404067221236105e+00 1.844596500685106652e-03 2.863636363636363757e+00 2.496378544053691417e+00
2.269740131332425914e+00 1.784620609829179342e-03 2.838755304101838739e+00 2.520203192222264743e+00
2.275928662030326066e+00 1.770462641505800294e-03 2.824786324786324965e+00 2.454797472882076725e+00
2.282234771450446509e+00 1.859120215862977580e-03 2.928184281842818315e+00 2.459460455742228380e+00
2.288651494096741512e+00 1.861574731480084791e-03 2.815468113975576614e+00 2.413698786912148897e+00
2.294929189507614264e+00 1.787386468760323059e-03 2.768258426966291985e+00 2.379550902675108492e+00
2.301123790424945526e+00 1.773889529887621910e-03 2.768055555555555713e+00 2.360859463713884221e+00
2.307427473574251042e+00 1.823767960867003161e-03 2.618403247631935216e+00 2.226366822300911430e+00
2.313824548022820782e+00 1.807223345639351721e-03 2.543833580980683351e+00 2.301075639343967527e+00
2.320154992066300714e+00 1.861695907969135875e-03 2.535502958579881838e+00 2.370517704907324941e+00
2.326479049872378635e+00 1.797363522119922990e-03 2.491525423728813582e+00 2.310522228089013197e+00
2.332811122143054305e+00 1.834923033436536115e-03 2.414893617021276473e+00 2.317551944500110928e+00
2.339146829363451641e+00 1.809933127175767861e-03 2.326530612244897878e+00 2.276219345893665036e+00
2.345346999874724947e+00 1.788822558822959720e-03 2.247588424437299004e+00 2.217338491441657400e+00
2.351591514044208964e+00 1.821961582186779451e-03 2.226771653543307306e+00 2.148638702364018993e+00
2.357940827546205931e+00 1.821480796874143165e-03 2.145569620253164445e+00 2.090043139187819587e+00
2.364269371024037891e+00 1.822839816105960298e-03 2.125000000000000000e+00 2.094090816118977738e+00
2.370575565839220911e+00 1.828742917233826173e-03 2.144694533762057986e+00 2.113774373123715300e+00
2.376891771469677561e+00 1.815523241845057745e-03 2.085760517799352787e+00 2.063922042111409727e+00
2.383240749019818416e+00 1.833462819707767054e-03 1.969453376205787754e+00 1.993715636147771919e+00
2.389601619010945921e+00 1.828185711102788165e-03 1.967426710097719855e+00 2.007038089009835602e+00
2.395961259100775731e+00 1.812604844355751544e-03 2.000000000000000000e+00 1.940285000290663753e+00
2.402160007896914973e+00 1.807533258736503850e-03 2.100000000000000089e+00 1.991923993035337848e+00
2.408453972146052724e+00 1.793232887210479852e-03 2.239766081871345182e+00 2.095287851881959984e+00
2.414771780432101167e+00 1.830638750947721858e-03 2.341463414634146201e+00 2.152397872318882577e+00
2.421058800843912895e+00 1.849123668637423033e-03 2.429985855728430177e+00 2.215323478129110235e+00
2.427397847212681370e+00 1.833909450969152099e-03 2.326388888888888840e+00 2.120870169948595674e+00
2.433701938443864954e+00 1.777285794113256248e-03 2.323488045007032543e+00 2.116814087591372573e+00
2.440001432560962691e+00 1.835928632076300280e-03 2.367989056087551170e+00 2.171944898367320853e+00
2.446276920633820851e+00 1.825543246774167941e-03 2.404401650618982256e+00 2.178900419396443411e+00
2.452612917458465880e+00 1.850886418197054181e-03 2.389920424403182864e+00 2.163034425353671963e+00
2.458937188373468086e+00 1.764090576915684772e-03 2.319178082191780899e+00 2.103796530649272523e+00
2.465235494564519847e+00 1.842465198645606636e-03 2.340819022457067522e+00 2.088658912273865464e+00
2.471581205305689810e+00 1.856761058240425245e-03 2.382894736842105399e+00 2.126264492606879664e+00
2.477865992864338285e+00 1.798850075022648308e-03 2.359520639147802967e+00 2.119998287838559925e+00
2.484122936716935737e+00 1.780971833254360159e-03 2.391017173051519062e+00 2.096310508083413016e+00
2.490467721662181333e+00 1.849468727863495983e-03 2.500638569604086925e+00 2.143108089939881111e+00
2.496849546734450254e+00 1.852734310658727887e-03 2.522349936143039706e+00 2.188989405685620060e+00
2.503105859710241798e+00 1.772860352036017325e-03 2.424802110817942058e+00 2.161561087653152136e+00
2.509322203788900918e+00 1.804578376445024500e-03 2.453846153846154010e+00 2.133310989774511501e+00
2.515643032193938478e+00 1.830400595634155535e-03 2.521410579345088276e+00 2.117058409856390711e+00
2.522012436559997628e+00 1.844427975373299751e-03 2.452853598014888448e+00 2.106989811887501673e+00
2.528376527697731913e+00 1.805263014170996501e-03 2.412060301507537474e+00 2.095477386934670339e+00
2.534662305746367750e+00 1.817191430107880853e-03 2.423173803526448289e+00 2.085163125325555367e+00
2.540923642722284104e+00 1.847774197163838152e-03 2.445544554455445496e+00 2.083661543273986005e+00
2.547222087144660030e+00 1.810867478977307979e-03 2.440594059405940541e+00 2.105976029251233062e+00
2.553540685742163419e+00 1.807658101810726481e-03 2.418604651162790553e+00 2.103577361538516044e+00
2.559925401613222018e+00 1.856915584780679824e-03 2.552095808383233688e+00 2.142536391614772828e+00
2.566280305514876403e+00 1.838802799104265022e-03 2.501210653753026758e+00 2.112169282965536965e+00
2.572544852388987113e+00 1.785952156998167010e-03 2.473619631901840421e+00 2.101608043904922951e+00
2.578799894204640619e+00 1.806472379669163885e-03 2.498186215235791874e+00 2.086765305054058217e+00
2.585123793491197919e+00 1.855120447360665906e-03 2.663924794359576964e+00 2.185989576841608439e+00
2.591472256141813091e+00 1.805120360344933915e-03 2.619785458879618556e+00 2.169330965462238581e+00
2.597744265483155957e+00 1.788819714346394623e-03 2.582733812949640217e+00 2.118032122703781273e+00
2.604038454996993934e+00 1.850630787333012181e-03 2.641025641025640969e+00 2.165656100102804515e+00
2.610374414453144443e+00 1.837105816396599096e-03 2.627473806752037344e+00 2.184563020419241219e+00
2.616634120485421100e+00 1.761050173804210722e-03 2.649164677804296097e+00 2.158267553036917086e+00
2.622940397920966227e+00 1.848634675493098997e-03 2.700796359499431087e+00 2.162618140790420806e+00
2.629323187355575353e+00 1.839581463337864892e-03 2.731735159817351377e+00 2.156197793416537944e+00
2.635681273538560632e+00 1.815290224604702678e-03 2.707903780068728672e+00 2.169565432729102739e+00
2.641934789831782204e+00 1.778405014700361417e-03 2.774647887323943518e+00 2.226996925864357380e+00
2.648176773767660031e+00 1.853093332118325998e-03 2.833145434047350530e+00 2.226756092190425917e+00
2.654514065851063087e+00 1.823524830511773481e-03 2.786440677966101731e+00 2.244245303372656597e+00
2.660817448321032508e+00 1.798052776896779401e-03 2.807736063708759833e+00 2.268474935582936780e+00
2.667123571907564994e+00 1.844852426740933296e-03 2.864444444444444571e+00 2.245570124753445196e+00
2.673472329675100401e+00 1.839448802019330543e-03 2.720930232558139483e+00 2.223003502551379018e+00
2.679761377760365715e+00 1.786299887381436651e-03 2.763574660633484115e+00 2.225507893309332630e+00
2.686129035698236578e+00 1.877272974428747035e-03 2.757158006362672165e+00 2.233967586749243672e+00
2.692300573720700196e+00 1.798376592015874225e-03 2.826038159371492497e+00 2.221934817996034983e+00
2.698561328278970439e+00 1.798779619418457414e-03 2.908779931584948741e+00 2.183594677988671684e+00
2.704947056964875252e+00 1.860594623228957294e-03 2.966292134831460814e+00 2.130557519529154842e+00
2.711339925705444909e+00 1.826229981736538378e-03 3.000000000000000000e+00 2.140601767243483611e+00
2.717643416720191052e+00 1.774618570520191145e-03 2.998806682577565663e+00 2.076691194343748048e+00
2.723934694222051256e+00 1.823763048442502126e-03 3.040141676505312862e+00 2.009327518733258433e+00
2.730274673678132036e+00 1.841398355898408350e-03 3.042502951593860860e+00 1.975502983698080417e+00
2.736591263199737778e+00 1.788312012670147501e-03 2.998780487804878270e+00 1.996948147456206080e+00
2.742885231028380222e+00 1.844652457607765493e-03 3.141486810551558762e+00 2.021006600102146944e+00
2.749161241756704843e+00 1.804773587711254630e-03 3.156019656019656061e+00 2.056433998538696795e+00
2.755398232824302962e+00 1.776157869081165970e-03 3.097893432465923080e+00 1.963850601488345893e+00
2.761751565609168679e+00 1.857903093933079139e-03 3.109916367980884111e+00 1.889731293445239491e+00
2.768124311574730267e+00 1.813883183384283311e-03 3.079754601226993849e+00 1.841876778757064681e+00
2.774423663616722546e+00 1.776295681999270643e-03 3.104868913857677715e+00 1.846917964536488377e+00
2.780754869867226198e+00 1.842436817654598789e-03 3.176613885505481072e+00 1.814331765964560139e+00
2.787077464795406190e+00 1.805278297034774168e-03 3.127499999999999947e+00 1.744320247259659062e+00
2.793346642012575654e+00 1.793644434711254678e-03 3.146279949558638211e+00 1.716391492378164463e+00
2.799634253246212179e+00 1.838111547031318375e-03 3.202233250620347249e+00 1.706518742967284341e+00
2.805924842988945844e+00 1.808245895551135627e-03 3.172979797979798011e+00 1.678922644677696141e+00
2.812167973206011862e+00 1.789098639402584082e-03 3.179028132992327560e+00 1.671222919891883985e+00
2.818496662748549042e+00 1.874446068014908040e-03 3.253056234718826545e+00 1.617398684071762460e+00
2.824858807967614460e+00 1.791571154666717633e-03 3.239490445859872558e+00 1.632557013810829849e+00
2.831150482550185643e+00 1.815112775054883139e-03 3.222784810126582133e+00 1.604587039514224323e+00
2.837475400148095517e+00 1.850316795954077458e-03 3.255292652552926658e+00 1.629399991516105040e+00
2.843805018276897911e+00 1.786824753329564535e-03 3.200256739409499396e+00 1.609487358641600530e+00
2.850131561922547352e+00 1.845583173970813699e-03 3.220973782771535454e+00 1.564712549029023902e+00
2.856484494638581229e+00 1.841115527677602507e-03 3.198007471980074623e+00 1.494995728564910698e+00
2.862782859862781137e+00 1.780809355167121575e-03 3.147959183673469497e+00 1.557562481908157270e+00
2.869068523143336158e+00 1.847699945098150954e-03 3.143558282208589016e+00 1.559985543138848962e+00
2.875378514069953706e+00 1.802909528894259443e-03 3.091136079900124844e+00 1.503818777036077137e+00
2.881671995666307051e+00 1.819305449905813353e-03 3.048447204968943947e+00 1.415161473222540600e+00
2.887980092673573917e+00 1.848812746508326317e-03 3.025735294117647189e+00 1.348331073574922989e+00
2.894292086458025270e+00 1.795011172749967111e-03 3.057788944723617952e+00 1.382954150640274271e+00
2.900588101801901963e+00 1.834444505730529681e-03 3.149567367119900929e+00 1.415983244518974393e+00
2.906894294921833044e+00 1.834235081131648307e-03 3.135068153655514056e+00 1.383838670664064407e+00
2.913143215321425394e+00 1.775388414920497622e-03 3.074263764404609578e+00 1.342102124260616591e+00
2.919469846096636179e+00 1.902110692867622259e-03 3.110311750599520586e+00 1.364574770904920964e+00
2.925831071463227850e+00 1.799019204260941503e-03 3.068527918781725816e+00 1.317284557127814226e+00
2.932125236913744715e+00 1.849572311535908030e-03 3.106304079110012495e+00 1.264698087491198164e+00
2.938426190430696305e+00 1.829943172517629413e-03 3.054931335830212369e+00 1.166874220467285728e+00
2.944698497868602605e+00 1.792371922793937686e-03 2.958121827411167359e+00 1.105234512480792297e+00
2.951032364443879619e+00 1.872648010744969562e-03 2.993932038834951292e+00 1.122347786419536586e+00
2.957349976869245278e+00 1.772646084934545842e-03 2.937340153452685509e+00 1.154811466810945042e+00
2.963641534615172990e+00 1.843499637433317897e-03 2.993827160493827133e+00 1.135272286348876003e+00
2.969974563050315375e+00 1.835483252247156055e-03 3.057142857142856940e+00 1.171307371400164499e+00
2.976261971728969780e+00 1.784595762971840369e-03 3.026785714285714413e+00 1.118868942892894847e+00
2.982555079221103078e+00 1.856376802478345786e-03 3.022031823745410239e+00 1.091093047333361987e+00
2.988860230475899549e+00 1.767956570045068222e-03 2.950064020486555805e+00 1.045692683951398472e+00
2.995178874680174186e+00 1.856934622757372335e-03 2.947432762836185827e+00 1.019184583197217719e+00
3.001496400543723020e+00 1.797819739674591305e-03 2.926489226869454896e+00 9.728004759529680356e-01
3.007822553902104179e+00 1.849516356328991537e-03 2.971534653465346398e+00 9.795665032356632995e-01
3.014155913686516808e+00 1.844070628166239031e-03 2.881987577639751663e+00 9.356107431378978267e-01
3.020427983220980828e+00 1.780401570183770890e-03 2.903846153846153744e+00 1.006830714065185539e+00
3.026726854870708916e+00 1.864734463497724846e-03 4.515892420537896967e+00 2.290831116439158421e+01
3.033042693621903041e+00 1.790509691971886499e-03 1.342984693877551017e+01 1.320224140845017757e+02
3.039417687211595442e+00 1.892848977299335135e-03 1.563043478260869534e+01 1.739961981908716666e+02
3.045771113053035606e+00 1.809002971513908259e-03 6.154626108998732192e+00 5.293611533747603204e+01
3.052089874155329063e+00 1.844438578281415919e-03 3.064516129032258007e+00 2.694473177449391521e+00
3.058386304167925118e+00 1.824217551217444024e-03 2.899749373433583965e+00 8.413496878845377891e-01
3.064635661305841197e+00 1.781811879387494579e-03 2.826923076923077094e+00 8.293197231199922470e-01
3.070942258104439215e+00 1.879278577764203085e-03 2.917575757575757489e+00 9.100867273176062033e-01
3.077306102136554866e+00 1.789896323379901438e-03 2.918678526048284816e+00 9.402168666222647797e-01
3.083610248093582751e+00 1.842323938384468965e-03 2.865928659286592683e+00 9.140506017100478164e-01
3.089899276602742884e+00 1.781295098450355954e-03 2.853503184713375607e+00 9.245459339498081075e-01
3.096219282790054539e+00 1.849962857272845727e-03 2.863970588235293935e+00 8.421819713666639506e-01
3.102516781183005889e+00 1.793151767743564459e-03 2.868187579214195093e+00 8.418397499133729589e-01
3.108846425703184035e+00 1.844538984569745127e-03 2.880688806888068942e+00 8.316520577944483961e-01
3.115155056293756886e+00 1.812510444856532069e-03 2.865746549560853396e+00 8.181601197942830472e-01
3.121484332076036150e+00 1.832521331068808152e-03 2.906947890818858404e+00 8.282601871367617496e-01
3.127777573742708483e+00 1.818133687887086257e-03 2.827930174563590970e+00 8.642831736876669391e-01
3.134074710556275623e+00 1.800750836428910992e-03 2.693568726355611620e+00 8.169320774743260571e-01
3.140350968701055567e+00 1.840082388152106639e-03 2.742610837438423488e+00 7.815201460911866960e-01
3.146669598331559570e+00 1.795769837056059460e-03 2.755050505050505194e+00 8.205341698214069224e-01
3.152959210157879166e+00 1.842768641532451131e-03 2.758282208588957118e+00 8.186026379730622082e-01
3.159264892205651432e+00 1.791857333635609589e-03 2.732911392405063200e+00 7.822211277160768805e-01
3.165581888857809112e+00 1.858342078644047027e-03 2.739077669902912682e+00 7.613548034725092784e-01
3.171905560319084216e+00 1.782720971754531017e-03 2.699619771863118078e+00 7.932777661867630448e-01
3.178180461481988406e+00 1.828434529921516482e-03 2.681818181818181657e+00 8.048324006957843224e-01
3.184506679420991304e+00 1.810619157308176325e-03 2.615193026151930056e+00 7.769322420431230558e-01
3.190846230582273346e+00 1.831490456789015321e-03 2.611246943765280992e+00 7.474388012997558173e-01
3.197132365687451294e+00 1.780884113596707067e-03 2.555696202531645422e+00 7.357120578148067525e-01
3.203454230992797136e+00 1.862619862555806765e-03 2.551266586248492008e+00 7.478335712350738795e-01
3.209790152929830498e+00 1.796864404628749357e-03 2.454088050314465530e+00 7.552985180906485185e-01
3.216105270782768422e+00 1.849581865447865814e-03 2.548543689320388328e+00 7.747586502652347162e-01
3.222383723154825574e+00 1.773184836801974633e-03 2.492385786802030267e+00 7.450740947956473459e-01
3.228652903688512765e+00 1.829814433570467642e-03 2.556638246041412987e+00 7.703179341132224689e-01
3.234977992221026444e+00 1.801123950508762587e-03 2.565920398009950087e+00 7.727254692806381220e-01
3.241301441286830176e+00 1.830570155328411054e-03 2.541919805589307302e+00 7.515441265385421898e-01
3.247581817024004280e+00 1.774748969754167847e-03 2.476611883691529847e+00 7.524035920131676436e-01
3.253885986942128827e+00 1.868811343678552150e-03 2.464670658682634574e+00 7.076760102171836264e-01
3.260235987169183947e+00 1.804603356501592029e-03 2.521250000000000213e+00 7.072481884034790278e-01
3.266546856392692710e+00 1.857627301288636550e-03 2.442307692307692513e+00 6.611407290505340040e-01
3.272886904023045052e+00 1.792569475559808913e-03 2.415000000000000036e+00 7.404686016300782159e-01
3.279153478698136670e+00 1.837211362056317054e-03 2.397575757575757471e+00 6.857800047216570105e-01
3.285516195699416553e+00 1.819318898053023329e-03 2.414004914004913793e+00 6.461893106337588399e-01
3.291677990232397821e+00 1.824817096246810931e-03 2.457404980340760048e+00 7.036909496433655375e-01
3.298068987764390059e+00 1.863784166448585874e-03 2.468493150684931692e+00 7.330213658292938916e-01
3.304430978840338096e+00 1.814787339162488022e-03 2.345930232558139483e+00 6.603541761148992162e-01
3.310737564052387061e+00 1.817945227602999880e-03 2.294642857142857206e+00 6.523256895693333446e-01
3.317033906120231190e+00 1.800198345421728579e-03 2.295839753466871969e+00 7.275077314811948526e-01
3.323313479518194669e+00 1.810036704891648416e-03 2.263322884012539227e+00 6.742290132701791450e-01
3.329645772824664451e+00 1.853775369266378323e-03 2.173166926677067234e+00 6.118329256940768790e-01
3.335990548707715053e+00 1.826590486813650920e-03 2.199036918138041585e+00 6.577339119941988388e-01
3.342268739174953929e+00 1.807641793864574143e-03 2.221859706362153464e+00 6.563144658197217485e-01
3.348554594221377023e+00 1.807536448754866812e-03 2.197368421052631415e+00 6.184035551835982414e-01
3.354810866618635590e+00 1.798386852034845364e-03 2.125628140703517577e+00 6.202926817519887059e-01
3.361143554435736203e+00 1.860575678898459748e-03 2.134426229508196826e+00 7.187323487894874408e-01
3.367505271257411170e+00 1.829077091643749146e-03 2.119932432432432456e+00 6.454161784944519864e-01
3.373804785089639324e+00 1.803149868685275390e-03 2.060658578856152445e+00 6.353775993797493582e-01
3.380079784639911100e+00 1.805631642174917659e-03 2.008787346221441172e+00 6.287835923447440134e-01
3.386416571036835244e+00 1.843579116849991192e-03 2.005281690140845008e+00 6.152255921693003948e-01
3.392732849186819166e+00 1.821713749179523084e-03 1.963702359346642501e+00 6.561695886903822217e-01
3.399077842768783331e+00 1.840157085703132342e-03 1.971014492753623282e+00 6.160698929516603695e-01
3.405368445234043140e+00 1.771416845865005909e-03 1.950381679389312950e+00 6.157294211918121762e-01
3.411642977450664915e+00 1.840004348347408980e-03 2.026315789473684070e+00 6.126147195571837178e-01
3.417946432239648225e+00 1.816648589106147462e-03 2.085436893203883368e+00 6.658467324038455093e-01
3.424268333461439884e+00 1.838339958730071926e-03 1.974854932301740806e+00 6.104315134363395012e-01
3.430601598134079389e+00 1.799761940178920376e-03 1.911823647294589090e+00 5.627588500442449737e-01
3.436922606236269218e+00 1.844213366763177700e-03 1.969999999999999973e+00 5.376244042079941776e-01
3.443269856433799347e+00 1.834668830692703879e-03 1.981595092024539984e+00 5.366257353090738702e-01
3.449516618902171317e+00 1.769622948488585408e-03 1.959401709401709324e+00 5.314631356024104303e-01
3.455771942280530862e+00 1.817195070858158281e-03 1.926004228329809775e+00 5.637689393318292552e-01
3.462154010515302804e+00 1.866018191136946868e-03 1.892405063291139333e+00 5.942854861182828019e-01
3.468478914699885340e+00 1.799468636805881495e-03 1.875831485587583058e+00 5.707628898666999850e-01
3.474737530089159865e+00 1.798535080277152308e-03 1.854260089686098567e+00 5.590293596325044412e-01
3.481027808853469629e+00 1.828779808500339806e-03 1.911764705882353033e+00 5.930796003042481113e-01
3.487370903609774420e+00 1.855504762412056021e-03 1.886877828054298600e+00 5.672645508559901462e-01
3.493710577164840458e+00 1.791815171782784382e-03 1.810874704491725717e+00 5.558220778126727879e-01
3.499981309375833849e+00 1.817721919481020843e-03 1.847255369928400892e+00 5.078655767250895847e-01
3.506294281862427642e+00 1.840208171226962808e-03 1.872901678657074243e+00 5.499873350350878987e-01
3.512643170548069183e+00 1.819719049123772565e-03 1.850122850122850160e+00 5.816768455066497756e-01
3.518887929185086527e+00 1.780316295825717758e-03 1.769230769230769162e+00 5.926905189743213453e-01
3.525201780775713889e+00 1.871585280235478531e-03 1.674937965260545836e+00 5.768310180293471090e-01
3.531587235286628879e+00 1.812415240060859375e-03 1.783854166666666741e+00 5.563172946185184209e-01
3.537791204901774123e+00 1.765649031450039182e-03 1.874659400544959054e+00 5.672943380731422236e-01
3.544104483213670331e+00 1.881636984785636617e-03 1.815104166666666741e+00 6.408155204503073188e-01
3.550526160049383151e+00 1.823753900979235669e-03 1.781420765027322384e+00 5.874253399071767134e-01
3.556826252644191833e+00 1.805941154371571225e-03 1.802816901408450745e+00 6.189495872438214308e-01
3.563110991539715666e+00 1.831382697511484874e-03 1.767045454545454586e+00 6.454930566295983274e-01
3.569418747584309326e+00 1.819035597463529485e-03 1.726744186046511587e+00 5.228519112966545368e-01
3.575721219182565580e+00 1.815191134896390569e-03 1.750741839762611329e+00 5.734301402578599882e-01
3.582041784633743120e+00 1.836067019019354488e-03 1.741741741741741789e+00 5.735185420827374481e-01
3.588351193306853926e+00 1.816205673054769026e-03 1.857585139318885359e+00 5.655390084844792442e-01
3.594644124218077774e+00 1.816162507538995278e-03 1.776025236593059997e+00 5.914048318946413252e-01
3.600965899690116157e+00 1.832434222657099978e-03 1.635782747603833798e+00 5.767459005351995849e-01
3.607301933810233674e+00 1.823864462282996299e-03 1.501639344262295062e+00 5.484727519036464161e-01
3.613589615564896995e+00 1.801875725405921403e-03 1.406779661016949179e+00 5.291285459113390655e-01
3.619872304563952703e+00 1.819848024125704684e-03 1.518900343642611617e+00 5.688504971930041787e-01
3.626184481674183946e+00 1.827760715362539709e-03 1.508771929824561431e+00 5.885958375816686683e-01
3.632455309189269510e+00 1.797655079431180383e-03 1.602189781021897907e+00 5.642670975208073925e-01
3.638754857574894697e+00 1.841922947680418475e-03 1.627737226277372162e+00 5.525552266435712623e-01
3.645110863435991444e+00 1.833895812584415653e-03 1.582706766917293173e+00 6.139455717063251328e-01
3.651399341121458253e+00 1.797724079201825547e-03 1.529411764705882248e+00 6.232703864496906832e-01
3.657684783062496781e+00 1.823089633617003442e-03 1.563492063492063489e+00 5.961104718367306043e-01
3.663989311092172851e+00 1.817352227903809700e-03 1.471311475409835978e+00 5.590921058290152512e-01
3.670338462676961733e+00 1.852037082036360515e-03 1.533057851239669311e+00 5.668843186658677480e-01
3.676667454351053799e+00 1.802731285318214709e-03 1.362445414847161640e+00 4.957437885176724235e-01
3.682957402673964431e+00 1.831301914300888494e-03 1.495575221238938157e+00 5.721839485553709137e-01
3.689264510226057059e+00 1.810576500315507495e-03 1.580645161290322509e+00 5.934331685404922174e-01
3.695607159299667099e+00 1.851070780809128090e-03 1.581395348837209225e+00 5.536642284633673805e-01
3.701906411334345837e+00 1.786914693256676148e-03 1.572139303482587014e+00 5.498806718267902349e-01
3.708163258087520564e+00 1.825159420261267002e-03 1.537688442211055273e+00 5.536767244558524759e-01
3.714507337749332283e+00 1.833043865117713490e-03 1.388601036269430100e+00 5.633151471472290783e-01
3.720870273368275249e+00 1.842023606415223082e-03 1.342245989304812870e+00 5.915560133851868185e-01
3.727157013165883104e+00 1.785929560704693081e-03 1.394285714285714350e+00 5.513027243516500642e-01
3.733414267292576749e+00 1.823616893326991065e-03 1.383720930232558155e+00 5.606170786943107665e-01
3.739747614563589284e+00 1.832601406324968355e-03 1.325301204819277157e+00 5.474972418073136282e-01
3.746091684029914770e+00 1.828992002129592063e-03 1.377358490566037652e+00 5.648835192259596960e-01
3.752406222021260618e+00 1.812401454337024109e-03 1.384105960264900625e+00 5.089006477731961020e-01
3.758712131096641595e+00 1.823143945980814458e-03 1.317241379310344795e+00 6.143352893984183050e-01
3.765000355804634324e+00 1.809969724265664184e-03 1.321167883211678884e+00 5.483204682722160328e-01
3.771324791207556704e+00 1.846593531196991230e-03 1.210526315789473673e+00 5.152982162610658667e-01
3.777640884128447674e+00 1.800430178895984180e-03 1.130081300813008172e+00 4.136765604295460363e-01
3.783890033752419058e+00 1.812352582976840126e-03 1.290598290598290676e+00 4.660275514603614000e-01
3.790205950757557840e+00 1.839564216382759279e-03 1.250000000000000000e+00 5.366064000470257556e-01
3.796547481197723339e+00 1.823144808823023381e-03 1.144230769230769162e+00 3.666476147103391314e-01
3.802839460639445335e+00 1.822115437231795494e-03 1.226804123711340289e+00 4.998671308206458219e-01
3.809162628389719529e+00 1.835235423465040759e-03 1.406593406593406703e+00 5.870641929315636443e-01
3.815477698903783743e+00 1.813833779597889004e-03 1.240963855421686857e+00 5.197507134969400200e-01
3.821777178949230969e+00 1.830898415393102585e-03 1.064935064935064846e+00 4.224274277218338924e-01
3.828076951026545771e+00 1.795694771849016581e-03 1.057971014492753659e+00 4.938181170261102815e-01
3.834316772867639944e+00 1.791896653628349866e-03 1.145161290322580738e+00 5.211449813355966132e-01
3.840583618544390898e+00 1.820001018717854217e-03 1.017857142857142794e+00 3.779644730092271421e-01
3.846911872181034475e+00 1.824281646184678762e-03 1.081632653061224580e+00 3.712939877277605105e-01
3.853313008086272973e+00 1.880829953221405115e-03 1.488372093023255793e+00 5.753170640396734203e-01
3.859656947796285653e+00 1.787945514535103963e-03 1.088235294117646967e+00 4.796913655970614920e-01
3.865825284683709118e+00 1.773175751446867720e-03 9.629629629629629095e-01 4.684855792842044786e-01
3.872064552013789740e+00 1.858490478498285668e-03 1.761904761904761862e+00 7.423074889580901781e-01
3.878243048288448236e+00 1.738115315901965106e-03 1.769230769230769162e+00 5.600084530215784229e-01
3.884441558101385361e+00 1.990091083924331716e-03 1.857142857142857206e+00 6.226998490772390760e-01
