# q qerr I(q) I(q)err
6.111313073595031620e-02 3.154100855865873791e-03 0.000000000000000000e+00 1.285714285714285809e+00
6.800242608866982619e-02 2.110752812487300123e-03 3.000000000000000000e+00 3.027650354097491725e+00
7.478812129850326285e-02 1.894856213165734514e-03 6.555555555555555358e+00 6.348908723182955960e+00
8.081736842982174818e-02 1.577734731020807597e-03 7.444444444444444642e+00 7.613341116944843279e+00
8.706192866790804508e-02 2.018057842609979804e-03 1.038461538461538503e+01 7.851807917541315796e+00
9.311361532868518698e-02 1.734318039620741251e-03 9.666666666666666075e+00 7.854581111965452500e+00
9.924832822165428892e-02 1.939409616079583844e-03 9.937500000000000000e+00 7.619362670197554088e+00
1.056867454532435108e-01 2.068262530006435406e-03 1.083333333333333393e+01 8.401802055379414824e+00
1.120935416356093062e-01 1.699923986068800717e-03 8.653846153846153300e+00 8.172511292644529135e+00
1.177168722532570266e-01 1.903764278506084144e-03 1.071875000000000000e+01 8.130166626521253548e+00
1.242406998858587575e-01 2.007415885574503726e-03 1.264285714285714235e+01 6.764063203460488616e+00
1.307844605212421796e-01 1.948859987027574741e-03 1.350000000000000000e+01 6.741396633593706333e+00
1.372938405551752672e-01 1.976444694498947011e-03 1.441935483870967794e+01 6.549975971232663952e+00
1.433626874055373979e-01 1.479129257371093872e-03 1.383999999999999986e+01 7.186654298072225444e+00
1.497414395840910573e-01 2.132896554945924294e-03 1.602702702702702808e+01 6.205925677408125729e+00
1.562016171858009728e-01 1.470810848565314282e-03 1.503703703703703631e+01 6.771399548974485150e+00
1.620883487451751925e-01 1.817360580555445800e-03 1.572727272727272663e+01 6.306016192524855235e+00
1.684939590642719198e-01 1.975568076388520972e-03 1.570270270270270352e+01 6.189425228592393857e+00
1.749358117034872373e-01 1.810730169671130639e-03 1.591428571428571459e+01 6.344079676263177703e+00
1.813634234827302405e-01 1.982290824745188643e-03 1.663414634146341342e+01 6.109062323689080642e+00
1.877608813777307539e-01 1.710969833005861022e-03 1.600000000000000000e+01 6.133646682164014763e+00
1.936838392192468117e-01 1.708352888559126238e-03 1.607894736842105132e+01 6.221444461789860547e+00
1.998200724089964908e-01 1.901042836663710675e-03 1.651162790697674509e+01 6.200629776629572376e+00
2.064988844748374130e-01 2.083185659227047067e-03 1.616666666666666785e+01 6.459542897484654489e+00
2.131062600015138364e-01 1.923054290541973939e-03 1.725531914893617014e+01 5.874922343283413007e+00
2.193208008558340527e-01 1.649587748772136844e-03 1.711627906976744029e+01 6.033886640757347486e+00
2.255197753110727010e-01 1.943898002345461392e-03 1.794117647058823550e+01 6.040329665529972303e+00
2.319084130262620835e-01 1.853433278599466881e-03 1.796000000000000085e+01 6.260798671096204693e+00
2.380456302514551703e-01 1.717913041466973250e-03 1.770833333333333215e+01 6.251041579875575849e+00
2.441826744061198484e-01 1.910984005326162374e-03 1.780000000000000071e+01 5.838119248836593833e+00
2.508567628905887248e-01 1.865639566994751813e-03 1.772580645161290391e+01 5.562061169539045835e+00
2.571616352083493928e-01 2.042758540577210586e-03 1.837804878048780566e+01 5.330147273608686120e+00
2.636090936505812721e-01 1.759536909171210452e-03 1.906493506493506374e+01 5.502939308731996881e+00
2.696276322290375727e-01 1.767913466712890637e-03 1.944999999999999929e+01 5.490047813999436421e+00
2.756934411426098519e-01 1.847457432374286813e-03 1.969047619047618980e+01 5.367054323261833737e+00
2.820483295007140123e-01 1.942127748479487680e-03 1.951685393258426870e+01 5.100937976130841989e+00
2.885873542857223528e-01 1.999902870285049771e-03 1.955789473684210478e+01 5.250553327917685031e+00
2.950059364807982032e-01 1.753155416080761590e-03 1.982558139534883779e+01 5.205329672920422368e+00
3.012776628394395750e-01 1.916275679195857595e-03 2.010526315789473628e+01 5.310419382367131291e+00
3.076468654533095481e-01 1.858480647863890167e-03 2.050537634408602017e+01 5.488749674661546507e+00
3.139397285054469910e-01 1.849733180513128640e-03 2.041489361702127781e+01 5.350714848397711165e+00
3.202097007249891103e-01 1.889977811219999311e-03 2.025510204081632537e+01 5.175370982483350701e+00
3.264390569218261762e-01 1.757358001834326191e-03 2.001075268817204389e+01 5.227100596426405232e+00
3.326951465344144543e-01 1.930481388006281569e-03 2.000000000000000000e+01 4.990375351999702502e+00
3.390239669727912464e-01 1.785238221274862988e-03 2.000000000000000000e+01 5.140872632984737400e+00
3.452290355408559885e-01 1.822729964848564038e-03 2.011764705882352899e+01 4.994806991847948296e+00
3.515217579766085620e-01 1.894166946962649433e-03 2.032380952380952266e+01 4.638672106493907599e+00
3.581115149106128270e-01 1.984833837990382030e-03 2.016814159292035313e+01 4.873600049796404043e+00
3.646365217867122976e-01 1.807385512883236643e-03 2.014953271028037207e+01 4.702114268285785492e+00
3.707522342694583029e-01 1.646676631311451595e-03 2.023999999999999844e+01 4.827504531328790094e+00
3.768404479121448269e-01 1.835047814059704218e-03 2.057657657657657779e+01 4.734077795479784356e+00
3.831651369708888866e-01 1.834489868729198949e-03 2.059459459459459296e+01 4.707049870209874420e+00
3.894643253735652899e-01 1.853753096359237081e-03 2.054867256637168182e+01 4.560828768665996513e+00
3.958807651630259494e-01 1.912159574900255954e-03 2.060000000000000142e+01 4.339162745661118592e+00
4.022473572087105209e-01 1.746533598099251966e-03 2.056756756756756843e+01 4.439595398749968780e+00
4.083991683103055381e-01 1.862831917861469243e-03 2.084033613445378208e+01 4.368341725914077323e+00
4.147868792651558945e-01 1.850918924272050396e-03 2.109917355371900882e+01 4.796614759182668664e+00
4.211381020132339281e-01 1.813003092898375071e-03 2.136363636363636331e+01 4.654477659630240183e+00
4.273404438934948479e-01 1.765577699919095717e-03 2.116806722689075571e+01 4.630740110627792561e+00
4.337195733954657406e-01 1.911235613422362228e-03 2.106153846153846132e+01 4.332852347756108280e+00
4.400834723796714920e-01 1.795304431444431784e-03 2.071774193548387188e+01 4.299135987536800485e+00
4.463380503116383125e-01 1.781136916513354146e-03 2.030158730158730052e+01 4.262089499705765228e+00
4.525475293404462862e-01 1.782735370135076804e-03 2.038582677165354440e+01 4.274517346203787760e+00
4.588781844142776345e-01 1.863542184770878652e-03 2.069402985074626855e+01 4.236611267020594873e+00
4.652813857520213814e-01 1.809454061223974295e-03 2.074436090225563945e+01 4.145885388064838750e+00
4.715886271752884884e-01 1.786725641485754782e-03 2.064925373134328268e+01 4.328975766546498960e+00
4.778700308571910971e-01 1.749120838384908864e-03 2.065413533834586346e+01 4.229101080210012853e+00
4.841075358786299798e-01 1.812598873705853009e-03 2.060144927536232018e+01 4.206345413173962378e+00
4.904685449060671165e-01 1.813034819841214708e-03 2.051428571428571601e+01 4.167463869314383729e+00
4.967988078032400945e-01 1.775169993053363985e-03 2.040425531914893753e+01 4.132865766960487797e+00
5.030461340587593089e-01 1.710738770771227935e-03 2.054347826086956630e+01 4.181379191973617182e+00
5.093789740337634209e-01 1.844995629980458740e-03 2.096644295302013461e+01 4.123755584284009679e+00
5.157895609665918979e-01 1.772173611217854692e-03 2.100000000000000000e+01 4.207787952363425177e+00
5.220653538623039047e-01 1.710912446064493482e-03 2.111888111888112007e+01 4.187976381083922561e+00
5.282420832211931483e-01 1.776221308977217429e-03 2.122297297297297192e+01 4.334700389335247372e+00
5.345849814872509764e-01 1.797460663252185451e-03 2.134210526315789380e+01 4.373629583546373212e+00
5.409400198384390901e-01 1.769240412124692928e-03 2.191503267973856239e+01 4.286939016076363629e+00
5.471612929737256215e-01 1.671871176479489780e-03 2.232432432432432279e+01 4.175828738557397557e+00
5.535187503546902255e-01 1.843477994232445120e-03 2.277160493827160437e+01 3.994843116910897329e+00
5.599303633336802921e-01 1.774845713676194252e-03 2.331847133757961643e+01 4.062720766727479393e+00
5.661980099607780703e-01 1.715649351238413218e-03 2.455844155844155807e+01 3.705500007914234395e+00
5.724333289920446877e-01 1.764199560704661452e-03 2.569999999999999929e+01 3.704136201599503853e+00
5.786575496797814466e-01 1.687338640378493104e-03 2.713636363636363669e+01 3.787601721468647042e+00
5.849918082512260975e-01 1.882166412490617838e-03 2.863372093023255971e+01 3.673093667512317584e+00
5.913559560974818163e-01 1.673563701773732749e-03 2.984713375796178170e+01 3.822643184613610856e+00
5.976003341774964728e-01 1.789272139650604403e-03 3.106508875739644893e+01 3.670890700506526549e+00
6.039710484280985670e-01 1.760471037718898532e-03 3.267261904761905100e+01 3.691743254069580704e+00
6.103455122609070527e-01 1.778153705054047679e-03 3.398245614035087669e+01 3.895513857478801079e+00
6.165941547084902163e-01 1.709282904712068618e-03 3.459281437125748226e+01 3.832499060873649110e+00
6.227886440901039267e-01 1.708031916550016484e-03 3.432738095238094900e+01 3.812043437589350159e+00
6.292222757675741684e-01 1.895555695838723603e-03 3.327272727272727337e+01 3.684309581570701209e+00
6.355837393651907474e-01 1.609918394456906487e-03 3.163030303030302903e+01 3.781997858979561311e+00
6.417201133152361514e-01 1.735489606861494215e-03 3.016853932584269771e+01 3.554639601155689554e+00
6.480234646877054416e-01 1.746502386866512820e-03 2.820224719101123512e+01 3.394411590645906696e+00
6.543745591304535036e-01 1.808595843625667669e-03 2.624456521739130466e+01 3.248945590190011057e+00
6.607410482875138991e-01 1.776914150084337417e-03 2.465760869565217561e+01 3.326513186671053557e+00
6.669765730033264672e-01 1.670208017253243388e-03 2.372727272727272663e+01 3.349555909876476889e+00
6.731673103258457580e-01 1.796482171393593615e-03 2.294148936170212849e+01 3.288679706900131450e+00
6.795850853652600776e-01 1.822834825668488831e-03 2.247643979057591679e+01 3.420082680829175548e+00
6.858902177354958551e-01 1.747430487391250960e-03 2.216666666666666785e+01 3.384023183021328762e+00
6.921278880332987216e-01 1.765781770802452586e-03 2.200529100529100646e+01 3.360996324945372038e+00
6.985070946107704293e-01 1.847715388967816497e-03 2.184343434343434254e+01 3.290627875205626829e+00
7.048037128132643714e-01 1.757666077632949074e-03 2.150793650793650968e+01 3.409251366057236332e+00
7.109847861020758275e-01 1.767854622430342420e-03 2.115625000000000000e+01 3.468961142222553473e+00
7.172345948602801835e-01 1.822657136245004524e-03 2.102020202020202078e+01 3.392608866180395477e+00
7.236608500653414211e-01 1.906739358311473767e-03 2.080487804878048763e+01 3.328370288968432789e+00
7.299519259881649402e-01 1.814756391122580772e-03 2.069387755102040671e+01 3.301458034896843863e+00
7.362298620906445601e-01 1.872001608046580190e-03 2.059313725490196134e+01 3.108987232968891234e+00
7.427109241448597299e-01 1.961252361706546793e-03 2.052336448598130758e+01 3.052428588842277524e+00
7.489749171607754663e-01 1.795506848231544564e-03 2.052307692307692477e+01 3.432252180359974147e+00
7.553119902396251417e-01 1.968290517240121971e-03 2.081735159817351644e+01 3.415992080988325519e+00
7.617428847945948434e-01 1.878647625832918257e-03 2.071014492753623060e+01 3.702276907838936815e+00
7.679897535333021219e-01 1.889655825210407886e-03 2.089952153110047917e+01 3.030774747134308722e+00
7.742716946001383382e-01 1.890740870187222538e-03 2.067605633802816811e+01 3.183970963593190984e+00
7.806130493972306406e-01 1.874127862848933099e-03 2.050000000000000000e+01 3.097092367378710964e+00
7.869955317179381238e-01 1.962138593108325030e-03 2.043303571428571530e+01 3.175962010773673239e+00
7.933337815560531636e-01 1.823456314192357453e-03 2.046666666666666501e+01 3.061849218188353206e+00
7.995722808394026826e-01 1.873920736445982161e-03 2.042986425339366363e+01 2.676014426995615647e+00
8.059029702364099990e-01 1.855844282913126459e-03 2.033789954337899530e+01 2.740973840650323012e+00
8.122482529694946551e-01 1.899897789708842157e-03 2.053744493392070325e+01 2.538660685257182248e+00
8.185971333973350861e-01 1.831057107996742058e-03 2.058744394618834050e+01 2.740357973895381161e+00
8.248840800988579414e-01 1.805078930334647752e-03 2.043497757847533691e+01 2.770150108822574619e+00
8.311527541867054225e-01 1.843524136775542745e-03 2.018340611353711722e+01 2.744172347879940244e+00
8.375116084758876811e-01 1.829773299230467044e-03 2.012173913043478279e+01 2.744728578866153512e+00
8.438261475186588090e-01 1.817550564165925373e-03 2.031465517241379359e+01 2.660652651643796052e+00
8.500843452560248314e-01 1.755513946144033992e-03 2.027433628318583914e+01 2.676731502071949542e+00
8.563647400134730692e-01 1.844487251387733453e-03 2.035684647302904438e+01 2.711331722361301821e+00
8.626696591174244366e-01 1.710203360544058351e-03 2.031140350877193157e+01 2.835552604320410897e+00
8.689830853488446083e-01 1.844123492424595270e-03 2.022764227642276325e+01 2.678945062056188320e+00
8.753179752476163422e-01 1.741457950302257533e-03 1.985531914893617156e+01 2.779052471473552277e+00
8.815756228481118617e-01 1.752464905610253906e-03 1.953112033195020913e+01 2.814859590435829340e+00
8.877944678552249780e-01 1.716242394594354789e-03 1.952742616033755141e+01 2.937175626129010730e+00
8.941407927930166144e-01 1.839522330085644050e-03 1.974308300395257021e+01 2.864560253803613232e+00
9.005003621585947471e-01 1.752218829319661820e-03 1.977142857142857224e+01 2.732249897863144206e+00
9.067627482844141662e-01 1.720498064613873055e-03 1.975409836065573899e+01 2.688012246264062988e+00
9.130278025298368405e-01 1.789374596252915357e-03 1.990079365079365203e+01 2.700985001780607853e+00
9.193563827426239898e-01 1.786117629316656989e-03 1.967857142857142705e+01 2.763597592872159669e+00
9.256709965929463824e-01 1.773964252230773864e-03 1.960000000000000142e+01 2.714377117729758204e+00
9.319487846442510159e-01 1.740175819907428248e-03 1.946799999999999997e+01 2.694967161209946838e+00
9.382375230166524194e-01 1.835219923763222079e-03 1.955725190839694605e+01 2.824510004983805445e+00
9.445114335627492475e-01 1.754301698834087597e-03 1.947826086956521863e+01 2.831645491290976757e+00
9.507739483173833772e-01 1.796477233495237351e-03 1.950574712643678055e+01 2.698621136800731790e+00
9.571000001339345920e-01 1.844157663989784944e-03 1.951320754716981298e+01 2.674630625975120246e+00
9.634651872700409347e-01 1.860525514413665987e-03 1.954887218045112718e+01 2.676417152428642865e+00
9.697902983397413967e-01 1.869026222830578836e-03 1.950751879699248192e+01 2.461731526748144550e+00
9.761731987705594138e-01 1.898719003246270758e-03 1.953505535055350606e+01 2.593599864383952180e+00
9.824546988499620603e-01 1.850375251942234242e-03 1.954339622641509422e+01 2.569262679360977852e+00
9.887603507672997338e-01 1.885371791598095068e-03 1.953308823529411598e+01 2.505314420590909474e+00
9.951547945742836854e-01 1.923480157877882840e-03 1.949822064056939652e+01 2.560129091329868878e+00
1.001497743307979915e+00 1.816985016266823736e-03 1.938202247191011196e+01 2.633986831872161982e+00
1.007730073445106012e+00 1.872875193246743668e-03 1.933812949640287826e+01 2.744224777400932958e+00
1.014110590476311025e+00 1.881534321868284657e-03 1.931205673758865160e+01 2.603769133683720760e+00
1.020442888611849064e+00 1.823625195420996601e-03 1.921146953405017754e+01 2.512859234130690567e+00
1.026691701700078063e+00 1.782759485576686145e-03 1.904347826086956630e+01 2.305099685928308162e+00
1.033057845114525142e+00 1.884320384582664851e-03 1.904421768707483054e+01 2.061527559048880409e+00
1.039437792018165441e+00 1.793463056649077922e-03 1.879858657243816111e+01 2.130311297281819449e+00
1.045681248368910410e+00 1.745618337461533540e-03 1.863120567375886694e+01 2.148953725088046163e+00
1.051944871571292683e+00 1.801987856022948175e-03 1.872413793103448398e+01 2.307898859624151200e+00
1.058324809813473877e+00 1.829265674919061668e-03 1.896632996632996537e+01 2.304021977212940886e+00
1.064596602572098316e+00 1.714864743882408334e-03 1.906338028169014009e+01 2.298133455111878831e+00
1.070868750588993112e+00 1.792957436204007347e-03 1.887878787878787890e+01 2.264136400808297367e+00
1.077195490251847465e+00 1.798916779777443367e-03 1.890635451505016817e+01 2.294594696059736094e+00
1.083505800573759448e+00 1.740543057611223946e-03 1.891808873720136575e+01 2.382352795254753630e+00
1.089676915900379850e+00 1.748165881083384946e-03 1.874829931972789154e+01 2.381991998492641205e+00
1.096052400832523421e+00 1.863573573199493825e-03 1.868690095846645249e+01 2.295991224399202224e+00
1.102364289960501065e+00 1.744372504095847640e-03 1.859322033898305193e+01 2.379132202578408517e+00
1.108625070827478076e+00 1.829094711995288541e-03 1.858306188925081415e+01 2.327582089515023878e+00
1.114924075445366869e+00 1.842999932655674591e-03 1.797402597402597380e+01 2.623424842041110150e+00
1.121282665432693726e+00 1.762017027877181303e-03 1.814503816793893165e+01 2.535724588756414821e+00
1.127553932619258736e+00 1.851826979229859085e-03 1.820074349442379358e+01 2.442925142534666971e+00
1.133905639228342421e+00 1.803927404845938115e-03 1.825882352941176379e+01 2.499550132534233082e+00
1.140144523104706709e+00 1.820967272376473748e-03 1.819685039370078883e+01 2.631093849582278654e+00
1.146455214771981312e+00 1.831860927088285957e-03 1.808764940239043995e+01 2.491546954263155644e+00
1.152869066430118439e+00 1.902391342003174283e-03 1.813513513513513686e+01 2.247611692892834245e+00
1.159252377890596986e+00 1.791659613503928782e-03 1.821991701244813200e+01 2.418432257998084811e+00
1.165575291556828930e+00 1.872439892399787795e-03 1.842231075697211296e+01 2.335979938479735285e+00
1.171828433925186763e+00 1.747387590499659572e-03 1.831168831168831090e+01 2.316765667824640218e+00
1.178029580193284076e+00 1.845903894892485285e-03 1.854320987654320874e+01 2.083483457477812273e+00
1.184400904434957269e+00 1.829516060217846983e-03 1.862761506276150669e+01 2.147768478644748846e+00
1.190737654720273042e+00 1.816225366119703435e-03 1.882700421940928237e+01 2.321004963131844345e+00
1.196977477342464180e+00 1.780548390738201196e-03 1.863318777292576556e+01 2.369586186026449770e+00
1.203312963818603976e+00 1.874247930763579166e-03 1.849586776859504056e+01 2.231435567589268310e+00
1.209645773529357093e+00 1.750259837788138012e-03 1.834513274336283217e+01 2.264994069773889951e+00
1.215952225700388523e+00 1.837678281197498587e-03 1.828389830508474745e+01 2.361648655559672516e+00
1.222254898926581568e+00 1.775628514659025698e-03 1.772659176029962680e+01 2.581095048409103754e+00
1.228537298751265050e+00 1.780223345631782141e-03 1.806521739130434767e+01 2.278515999654277202e+00
1.234759587745337228e+00 1.795376270296014523e-03 1.814695340501792131e+01 2.264833116561917326e+00
1.241110555825225781e+00 1.895169703334604900e-03 1.811409395973154446e+01 2.249709078379949823e+00
1.247523323486311897e+00 1.874537877840588536e-03 1.789864864864864913e+01 2.148898294183233304e+00
1.253854431820907944e+00 1.857283623330970761e-03 1.781879194630872476e+01 2.083841281560290248e+00
1.260138295168494293e+00 1.856490137450314505e-03 1.766445182724252660e+01 2.287314494323561487e+00
1.266501421045549414e+00 1.881588491645209797e-03 1.755948553054662398e+01 1.929804317767161326e+00
1.272807251993681055e+00 1.824447191781883651e-03 1.750491803278688607e+01 1.955025085565950116e+00
1.279100636071537789e+00 1.831925956271344968e-03 1.755414012738853557e+01 2.086607094180259470e+00
1.285385940199903265e+00 1.796864974607813087e-03 1.744871794871794890e+01 2.133845244917510264e+00
1.291734086560349049e+00 1.833790085687247952e-03 1.728527607361963092e+01 2.069167908117812704e+00
1.297999116585571544e+00 1.712347548001254965e-03 1.707766990291262132e+01 2.028289881997706878e+00
1.304332283077917598e+00 1.862331657852500611e-03 1.711799410029498603e+01 1.917469933066449306e+00
1.310629912671008812e+00 1.689758514739712848e-03 1.720192307692307665e+01 2.056478793857548837e+00
1.316859893871710430e+00 1.807323329610554348e-03 1.727164179104477526e+01 2.174171476304486816e+00
1.323169508333509325e+00 1.772103529485381237e-03 1.721276595744680904e+01 2.122623218584368754e+00
1.329416719622044551e+00 1.761213072716576004e-03 1.705438066465256952e+01 1.980322785417524711e+00
1.335676763851219473e+00 1.808340606324402439e-03 1.706250000000000000e+01 1.956939727032515286e+00
1.342102166253144047e+00 1.916040745002256648e-03 1.695774647887323994e+01 1.916072820267783250e+00
1.348432554966731090e+00 1.804515701739407276e-03 1.677643504531722130e+01 1.920026929253803472e+00
1.354697325729501189e+00 1.895450207138361931e-03 1.671104815864022797e+01 2.149667581087436385e+00
1.361035554581970564e+00 1.836151892644552735e-03 1.679360465116279144e+01 2.090356828671508627e+00
1.367445372286436589e+00 1.911657172750392099e-03 1.685479452054794436e+01 1.855136448926562931e+00
1.373833054624600258e+00 1.794265400870382644e-03 1.672463768115942173e+01 1.892445099918800722e+00
1.380048052911932777e+00 1.791287036868802413e-03 1.663532763532763425e+01 1.814752198287354901e+00
1.386332670155489666e+00 1.806335848089170130e-03 1.667696629213483206e+01 1.743791627820656664e+00
1.392624520144640332e+00 1.796075039907524609e-03 1.681388888888888999e+01 1.785236091175216977e+00
1.398923000198597277e+00 1.771229759338340285e-03 1.691292134831460814e+01 1.796699129416569285e+00
1.405184482923453881e+00 1.808998902686751115e-03 1.688858695652173836e+01 1.704629766775453747e+00
1.411475199677901360e+00 1.734371386327675756e-03 1.675561797752808957e+01 1.817899749728550285e+00
1.417706081410672780e+00 1.817237095201347432e-03 1.677419354838709609e+01 1.843184518978614905e+00
1.424046144262549829e+00 1.816956160244514703e-03 1.669918699186991873e+01 1.922840141279156700e+00
1.430457268966005335e+00 1.925855730949348329e-03 1.668637532133676160e+01 1.765438084773345295e+00
1.436865665354877475e+00 1.843763745384080412e-03 1.671774193548387188e+01 1.785606012276710119e+00
1.443084111958556903e+00 1.831535442318516687e-03 1.663978494623655990e+01 1.993518373299484558e+00
1.449466238371406979e+00 1.910439897345804971e-03 1.681518987341772231e+01 1.974728983573273311e+00
1.455780432464144347e+00 1.769262236301017126e-03 1.676216216216216282e+01 1.805271883717715298e+00
1.462109939136078340e+00 1.873282905934200038e-03 1.674436090225563945e+01 1.787361066288521538e+00
1.468414112563870999e+00 1.734923018383166060e-03 1.670400000000000063e+01 1.766992171271094314e+00
1.474680891373796765e+00 1.804015195942032307e-03 1.680964467005076202e+01 1.810525483164336924e+00
1.480924591063775386e+00 1.742163032935032654e-03 1.691383812010444032e+01 1.857221102820347358e+00
1.487138550370334267e+00 1.742602934721402272e-03 1.703084832904884394e+01 1.697314276788898679e+00
1.493462591150057195e+00 1.833511633313982111e-03 1.689108910891089010e+01 1.587465607252759980e+00
1.499809278721849770e+00 1.805357266360340307e-03 1.690680100755667681e+01 1.767648282064626875e+00
1.506175762378094918e+00 1.888906516140883814e-03 1.697066014669926659e+01 1.811818428908575029e+00
1.512543466733061504e+00 1.879653113941155348e-03 1.693872549019607732e+01 1.926598434115429859e+00
1.518927121842702510e+00 1.865813122140227640e-03 1.697549019607843235e+01 1.896029385784149257e+00
1.525176469146275027e+00 1.826629940430822378e-03 1.694292803970223460e+01 1.789568805206404489e+00
1.531416651941075235e+00 1.798854978931840659e-03 1.675742574257425588e+01 1.802765442007957741e+00
1.537728221615372926e+00 1.856986876758172280e-03 1.667848699763593245e+01 1.821173548511229257e+00
1.544096010846849332e+00 1.769518617434322075e-03 1.657907542579075511e+01 1.796698190990219102e+00
1.550405005344789089e+00 1.809055686031393537e-03 1.668557919621749264e+01 1.706521777629915304e+00
1.556696834359960313e+00 1.740139413919524446e-03 1.679854368932038966e+01 1.717328636398816499e+00
1.562969221032702194e+00 1.804120915253569534e-03 1.680896226415094219e+01 1.612403943065786383e+00
1.569251838380229191e+00 1.803338776033149233e-03 1.688782816229116790e+01 1.554588060447174236e+00
1.575556094315494926e+00 1.863019847936644557e-03 1.686013986013985999e+01 1.588469914757537627e+00
1.581892448177514066e+00 1.865480693804838323e-03 1.665509259259259167e+01 1.734897724123449780e+00
1.588269483401412163e+00 1.861295980786164313e-03 1.652995391705069039e+01 1.675687184848066336e+00
1.594574325321363339e+00 1.830133252637398044e-03 1.646296296296296191e+01 1.683161687047987076e+00
1.600916934751582588e+00 1.832077894544300927e-03 1.626651480637813307e+01 1.731448550506974993e+00
1.607201343968552854e+00 1.780442356845074459e-03 1.616666666666666785e+01 1.631693243077928956e+00
1.613445462524496721e+00 1.775524639999344866e-03 1.626376146788990695e+01 1.594810385799090957e+00
1.619730849749851931e+00 1.787630240083115185e-03 1.639729119638826305e+01 1.621298730195289695e+00
1.625979803600224649e+00 1.755895091839796123e-03 1.643448275862068897e+01 1.527763929362281559e+00
1.632226613292544926e+00 1.821174808670054370e-03 1.629082774049216908e+01 1.515382145139881009e+00
1.638606704061473573e+00 1.894452323361247963e-03 1.606073752711496638e+01 1.503690389313963705e+00
1.645050487946952522e+00 1.887301666918968484e-03 1.582826086956521827e+01 1.573738880587314704e+00
1.651415996904310735e+00 1.851783837096881687e-03 1.563377192982456165e+01 1.582160473409563561e+00
1.657788871265904573e+00 1.852242853945953917e-03 1.555939524838012922e+01 1.671561152530108396e+00
1.664006124760511351e+00 1.741113674427757210e-03 1.546712018140589606e+01 1.701833320383307369e+00
1.670281873961185770e+00 1.842366346193471905e-03 1.536575052854122703e+01 1.664891103671461758e+00
1.676541801276667298e+00 1.721555322686186195e-03 1.529372197309417025e+01 1.679349745699395324e+00
1.682793682471841024e+00 1.824670227224382997e-03 1.524261603375527407e+01 1.620244923502248025e+00
1.689107465299970467e+00 1.791603935857043455e-03 1.525162689804772320e+01 1.692181143109209529e+00
1.695415952935033443e+00 1.877357617877282179e-03 1.524425887265135771e+01 1.671114020172910442e+00
1.701806617780016628e+00 1.875253898477295287e-03 1.520250521920667985e+01 1.660394285591392238e+00
1.708145235544118012e+00 1.851238026496159058e-03 1.521473684210526400e+01 1.656446150774456560e+00
1.714469347376187613e+00 1.845626368464784459e-03 1.514078674948240177e+01 1.545424883308011754e+00
1.720739519194126599e+00 1.771881702320935673e-03 1.518376068376068311e+01 1.557570663417616741e+00
1.726990948287859817e+00 1.820993782645452704e-03 1.515306122448979664e+01 1.619191956065511695e+00
1.733361150263370787e+00 1.784216608021570085e-03 1.517975206611570194e+01 2.107905879033435514e+00
1.739571674833123582e+00 1.760427731239605715e-03 1.545283018867924518e+01 6.161971952437697908e+00
1.745887440247851030e+00 1.853392121839796862e-03 1.571543086172344772e+01 9.623296154864039664e+00
1.752250177420427102e+00 1.860925844240075020e-03 1.542914979757085092e+01 5.972346766236811710e+00
1.758607387389414800e+00 1.864192030273802104e-03 1.488400000000000034e+01 1.951489687392683692e+00
1.764972322429467777e+00 1.851098948525789619e-03 1.479400000000000048e+01 1.585292402050800797e+00
1.771273520234028620e+00 1.808016239517707931e-03 1.470161290322580605e+01 1.571251506133086728e+00
1.777586992161852564e+00 1.807004964737956481e-03 1.467326732673267387e+01 1.579423617287895265e+00
1.783840233931820451e+00 1.746107465683986813e-03 1.448676171079429764e+01 1.597573715876606792e+00
1.790071520275328565e+00 1.795583184790444783e-03 1.457677165354330739e+01 1.532189183882783912e+00
1.796393698957722052e+00 1.819993601147859141e-03 1.441897233201581052e+01 1.504667860835785298e+00
1.802712928873270393e+00 1.883216042231023422e-03 1.438314176245210696e+01 1.472451229456002597e+00
1.809114577024696358e+00 1.850157529878445435e-03 1.445155038759689958e+01 1.522594881959359991e+00
1.815345782948464493e+00 1.803540499391122600e-03 1.444466403162055279e+01 1.553648807939888687e+00
1.821700705453981772e+00 1.863872113208649628e-03 1.446641791044776149e+01 1.498669771045799681e+00
1.828034416566336029e+00 1.759461126105644731e-03 1.419881889763779448e+01 1.550411496200803985e+00
1.834289862490237510e+00 1.817049905439401892e-03 1.409227871939736332e+01 1.554151612425493267e+00
1.840620947190598100e+00 1.780340576699249600e-03 1.413269230769230766e+01 1.454420928303218341e+00
1.846876290479544158e+00 1.833628160635640113e-03 1.410396975425330801e+01 1.429757757893867165e+00
1.853225331533147280e+00 1.864396810776891523e-03 1.396296296296296369e+01 1.372495849162059578e+00
1.859586416204100923e+00 1.843230203276794224e-03 1.369345794392523352e+01 1.452950951920685352e+00
1.865884580336470755e+00 1.827085395033201023e-03 1.364618249534450634e+01 1.464935191307613183e+00
1.872200528994375501e+00 1.799198018262535481e-03 1.367962962962963047e+01 1.332816257762008405e+00
1.878453452628845000e+00 1.760356359008985331e-03 1.369679849340866262e+01 1.381803562239614536e+00
1.884712324747962020e+00 1.805687576808031941e-03 1.362408759124087609e+01 1.448751117963622992e+00
1.891113706724730337e+00 1.861939656346446982e-03 1.361330935251798557e+01 1.434088347609027592e+00
1.897400945427566432e+00 1.833350088909791505e-03 1.353676470588235325e+01 1.432809784918355422e+00
1.903772875545957088e+00 1.875180743362649160e-03 1.349295774647887391e+01 1.492625527745708558e+00
1.910018917854334752e+00 1.739883276586547947e-03 1.345935727788279834e+01 1.422766241643318885e+00
1.916236012056648175e+00 1.833205283437960029e-03 1.351929824561403493e+01 1.427675707405410943e+00
1.922638163561010805e+00 1.793373418488206777e-03 1.346964285714285658e+01 1.474154461903846913e+00
1.928888348891847349e+00 1.792288115248428593e-03 1.337589928057554012e+01 1.512426316440702578e+00
1.935240631371640818e+00 1.865766417879262265e-03 1.335986159169550191e+01 1.473237995440451087e+00
1.941608872090050619e+00 1.856644915843207438e-03 1.329349736379613311e+01 1.437190824157897673e+00
1.947917338414854704e+00 1.837601359788319485e-03 1.325744308231173463e+01 1.348550048346008889e+00
1.954236834815996637e+00 1.805754229573221887e-03 1.309965034965035002e+01 1.387014944144074002e+00
1.960488135501994522e+00 1.772905664188001006e-03 1.296637168141592866e+01 1.431211772996982212e+00
1.966755922696415082e+00 1.810201296061439468e-03 1.308261617900172169e+01 1.458028423581173794e+00
1.973091583736556354e+00 1.814240900008777741e-03 1.306034482758620641e+01 1.425112382659859511e+00
1.979420480567132490e+00 1.865397302840512408e-03 1.302207130730050899e+01 1.386164441152555327e+00
1.985762243830389018e+00 1.849873766110382307e-03 1.284915254237288096e+01 1.491458010803216494e+00
1.992143605840229093e+00 1.840662096304069391e-03 1.291792294807370212e+01 1.428295154223160113e+00
1.998372952698491245e+00 1.738412627792555948e-03 1.298945518453427006e+01 1.507407711119523430e+00
2.004614638405731508e+00 1.821010887715033720e-03 1.296026490066225101e+01 1.450055161383146274e+00
2.010981699228176822e+00 1.807963355431743604e-03 1.288383838383838409e+01 1.393750292155417014e+00
2.017216781415232862e+00 1.822968187424302972e-03 1.282967959527824675e+01 1.317048234424864628e+00
2.023555507756473748e+00 1.866836436713831520e-03 1.278861788617886219e+01 1.501927727732733420e+00
2.029945947492921121e+00 1.842053164818473936e-03 1.263157894736842124e+01 1.396721527338484536e+00
2.036236367431154548e+00 1.802040352124230577e-03 1.261322314049586701e+01 1.364307373098813114e+00
2.042538823796997693e+00 1.786279422623429517e-03 1.258456486042693001e+01 1.343034988209201641e+00
2.048720173306640469e+00 1.747373060808409071e-03 1.253220338983050830e+01 1.353852218222075576e+00
2.055017041239767028e+00 1.892889576395914968e-03 1.239123630672926524e+01 1.379813191651924287e+00
2.061465280497128294e+00 1.850343878148330047e-03 1.222916666666666607e+01 1.378903743626811229e+00
2.067778354784032935e+00 1.826644103880053095e-03 1.207246376811594146e+01 1.453415985219518980e+00
2.074107962816127415e+00 1.810449409964311413e-03 1.213492063492063444e+01 1.378788671645584829e+00
2.080392027050733006e+00 1.757304311173108879e-03 1.214006514657980418e+01 1.296509007582992368e+00
2.086560915145909245e+00 1.789004268885935290e-03 1.204213938411669282e+01 1.365793335392795349e+00
2.092907509218693285e+00 1.897916204239676529e-03 1.210823170731707243e+01 1.406335718519097666e+00
2.099341076602548206e+00 1.841856996552926774e-03 1.200000000000000000e+01 1.402007489280995278e+00
2.105598503643897335e+00 1.780460926307301031e-03 1.195047923322683658e+01 1.297217060240501763e+00
2.111872942412509335e+00 1.813036870717739954e-03 1.187191358024691290e+01 1.295910436398985954e+00
2.118179840511383194e+00 1.773074262998883873e-03 1.181732283464566891e+01 1.242696313903062233e+00
2.124489700938873238e+00 1.854176769044688739e-03 1.180275229357798139e+01 1.279906938372751046e+00
2.130866139955553962e+00 1.876679961187130126e-03 1.177458396369137716e+01 1.255057902934429315e+00
2.137196345481136905e+00 1.803165093871285981e-03 1.172755417956656387e+01 1.177561820784703395e+00
2.143477781291089013e+00 1.808033309626025679e-03 1.161679389312977051e+01 1.234635070519542355e+00
2.149749346762158453e+00 1.787076492040512573e-03 1.150230414746543772e+01 1.218299315694218121e+00
2.156014428448592479e+00 1.811767013668930289e-03 1.138660578386605771e+01 1.243056046963805894e+00
2.162388958755252943e+00 1.899773100682969557e-03 1.146423357664233578e+01 1.239164986219383646e+00
2.168776559916051561e+00 1.828625003914755194e-03 1.143993993993993996e+01 1.177579296398171271e+00
2.175079146577416189e+00 1.799027495536281414e-03 1.132686567164179081e+01 1.172281411112084282e+00
2.181358965593887422e+00 1.775037425494343461e-03 1.122289156626506035e+01 1.182346897650639495e+00
2.187625576602315824e+00 1.830837683859201127e-03 1.107988165680473358e+01 1.247936920077739709e+00
2.193923842198696850e+00 1.837507381709080519e-03 1.103524229074889895e+01 1.327551391834965955e+00
2.200310743338333541e+00 1.859271066102410235e-03 1.097274031563845043e+01 1.359094351123221411e+00
2.206637920896229677e+00 1.789161753318371274e-03 1.099111111111111150e+01 1.284054791595331757e+00
2.212855268310565560e+00 1.778695396750237757e-03 1.095729013254786466e+01 1.249871100262005763e+00
2.219155297956861617e+00 1.826812665150635666e-03 1.089208633093525158e+01 1.206575844215056703e+00
2.225534449623195243e+00 1.883537061579874895e-03 1.082651622002820879e+01 1.271632565333991716e+00
2.231816049321749151e+00 1.789850136339156059e-03 1.079441997063142367e+01 1.341757464038863867e+00
2.238124350048766420e+00 1.838516226422660244e-03 1.075977653631284880e+01 1.306110125644168507e+00
2.244461256680506001e+00 1.769483755913013904e-03 1.076266280752532545e+01 1.266191437825990862e+00
2.250672411056880762e+00 1.815340560525242463e-03 1.067431850789096082e+01 1.268617238736954089e+00
2.256976265699253581e+00 1.875232856265233962e-03 1.058287292817679592e+01 1.270473493126470732e+00
2.263404067221236105e+00 1.844596500685106652e-03 1.043388429752066138e+01 1.252413829469271711e+00
2.269740131332425914e+00 1.784620609829179342e-03 1.041867043847241803e+01 1.256661019316294148e+00
2.275928662030326066e+00 1.770462641505800294e-03 1.045299145299145316e+01 1.263334409828436478e+00
2.282234771450446509e+00 1.859120215862977580e-03 1.046883468834688280e+01 1.264617529785194705e+00
2.288651494096741512e+00 1.861574731480084791e-03 1.044776119402985159e+01 1.360763696883982243e+00
2.294929189507614264e+00 1.787386468760323059e-03 1.035393258426966234e+01 1.441345209562808982e+00
2.301123790424945526e+00 1.773889529887621910e-03 1.026527777777777750e+01 1.385739484806969513e+00
2.307427473574251042e+00 1.823767960867003161e-03 9.966170500676589938e+00 1.379396248181088858e+00
2.313824548022820782e+00 1.807223345639351721e-03 9.974739970282318069e+00 1.269452105063693548e+00
2.320154992066300714e+00 1.861695907969135875e-03 9.812130177514793772e+00 1.275017497688202495e+00
2.326479049872378635e+00 1.797363522119922990e-03 9.765793528505392729e+00 1.290098842298064374e+00
2.332811122143054305e+00 1.834923033436536115e-03 9.706686930091185772e+00 1.268089331970217115e+00
2.339146829363451641e+00 1.809933127175767861e-03 9.574568288854003129e+00 1.189489933671154187e+00
2.345346999874724947e+00 1.788822558822959720e-03 9.469453376205787976e+00 1.238703987386311045e+00
2.351591514044208964e+00 1.821961582186779451e-03 9.455118110236220730e+00 1.123076472285624794e+00
2.357940827546205931e+00 1.821480796874143165e-03 9.359177215189873777e+00 1.180555778098218100e+00
2.364269371024037891e+00 1.822839816105960298e-03 9.224358974358974450e+00 1.186066342787685413e+00
2.370575565839220911e+00 1.828742917233826173e-03 9.170418006430868019e+00 1.188845605414123430e+00
2.376891771469677561e+00 1.815523241845057745e-03 9.144012944983819224e+00 1.165390097362865918e+00
2.383240749019818416e+00 1.833462819707767054e-03 9.027331189710610104e+00 1.043709299196527773e+00
2.389601619010945921e+00 1.828185711102788165e-03 8.934853420195439710e+00 1.098065362848664295e+00
2.395961259100775731e+00 1.812604844355751544e-03 8.785373608903020326e+00 1.288823677574742588e+00
2.402160007896914973e+00 1.807533258736503850e-03 8.822388059701491869e+00 1.242702019472194053e+00
2.408453972146052724e+00 1.793232887210479852e-03 8.847953216374268237e+00 1.190259620629844806e+00
2.414771780432101167e+00 1.830638750947721858e-03 8.911047345767574512e+00 1.240976603656415378e+00
2.421058800843912895e+00 1.849123668637423033e-03 8.970297029702971159e+00 1.266110625856725180e+00
2.427397847212681370e+00 1.833909450969152099e-03 8.843055555555555003e+00 1.198441310233452795e+00
2.433701938443864954e+00 1.777285794113256248e-03 8.742616033755274074e+00 1.142849936690381485e+00
2.440001432560962691e+00 1.835928632076300280e-03 8.708618331053351369e+00 1.134970981294018300e+00
2.446276920633820851e+00 1.825543246774167941e-03 8.657496561210454189e+00 1.140943732241490371e+00
2.452612917458465880e+00 1.850886418197054181e-03 8.604774535809019298e+00 1.245057915309961016e+00
2.458937188373468086e+00 1.764090576915684772e-03 8.524657534246575352e+00 1.249975792597275426e+00
2.465235494564519847e+00 1.842465198645606636e-03 8.552179656538969610e+00 1.216216431596423897e+00
2.471581205305689810e+00 1.856761058240425245e-03 8.547368421052631504e+00 1.161239189096557656e+00
2.477865992864338285e+00 1.798850075022648308e-03 8.454061251664446885e+00 1.142694723422459591e+00
2.484122936716935737e+00 1.780971833254360159e-03 8.435931307793923750e+00 1.219924093907230445e+00
2.490467721662181333e+00 1.849468727863495983e-03 8.418901660280971200e+00 1.216646542156621269e+00
2.496849546734450254e+00 1.852734310658727887e-03 8.340996168582375248e+00 1.262634750168649456e+00
2.503105859710241798e+00 1.772860352036017325e-03 8.244063324538258186e+00 1.263498278634397787e+00
2.509322203788900918e+00 1.804578376445024500e-03 8.217948717948717174e+00 1.172968329007522126e+00
2.515643032193938478e+00 1.830400595634155535e-03 8.261964735516372116e+00 1.144350541089498519e+00
2.522012436559997628e+00 1.844427975373299751e-03 8.197270471464019437e+00 1.257153854262161419e+00
2.528376527697731913e+00 1.805263014170996501e-03 8.104271356783920410e+00 1.232133495479716512e+00
2.534662305746367750e+00 1.817191430107880853e-03 8.125944584382871483e+00 1.231171283024299568e+00
2.540923642722284104e+00 1.847774197163838152e-03 8.069306930693068480e+00 1.191028820807835897e+00
2.547222087144660030e+00 1.810867478977307979e-03 8.011138613861385593e+00 1.141537357459940116e+00
2.553540685742163419e+00 1.807658101810726481e-03 8.042839657282740973e+00 1.151627793538313460e+00
2.559925401613222018e+00 1.856915584780679824e-03 8.124550898203592553e+00 1.144197157273435739e+00
2.566280305514876403e+00 1.838802799104265022e-03 8.019370460048426352e+00 1.134805635083826925e+00
2.572544852388987113e+00 1.785952156998167010e-03 7.905521472392638138e+00 1.160511139156488625e+00
2.578799894204640619e+00 1.806472379669163885e-03 7.899637243047158641e+00 1.187688521745818404e+00
2.585123793491197919e+00 1.855120447360665906e-03 7.891891891891892108e+00 1.185471166721495662e+00
2.591472256141813091e+00 1.805120360344933915e-03 7.876042908224076378e+00 1.214230532923655792e+00
2.597744265483155957e+00 1.788819714346394623e-03 7.941247002398081456e+00 1.264751020568339657e+00
2.604038454996993934e+00 1.850630787333012181e-03 7.972027972027971643e+00 1.268821332947447811e+00
2.610374414453144443e+00 1.837105816396599096e-03 7.924330616996507537e+00 1.320566173390190334e+00
2.616634120485421100e+00 1.761050173804210722e-03 7.920047732696897214e+00 1.335919787110570800e+00
2.622940397920966227e+00 1.848634675493098997e-03 7.871444823663253487e+00 1.345935063226591399e+00
2.629323187355575353e+00 1.839581463337864892e-03 7.796803652968036680e+00 1.387989846840731456e+00
2.635681273538560632e+00 1.815290224604702678e-03 7.845360824742267702e+00 1.361375673822199373e+00
2.641934789831782204e+00 1.778405014700361417e-03 7.819248826291079979e+00 1.307249364695433513e+00
2.648176773767660031e+00 1.853093332118325998e-03 7.798196166854565625e+00 1.331550752704524943e+00
2.654514065851063087e+00 1.823524830511773481e-03 7.784180790960451901e+00 1.357782635668349114e+00
2.660817448321032508e+00 1.798052776896779401e-03 7.805460750853242757e+00 1.409999737429982192e+00
2.667123571907564994e+00 1.844852426740933296e-03 7.742222222222221895e+00 1.294405817258670766e+00
2.673472329675100401e+00 1.839448802019330543e-03 7.685492801771871108e+00 1.291579959296712987e+00
2.679761377760365715e+00 1.786299887381436651e-03 7.738687782805429904e+00 1.272034554090263336e+00
2.686129035698236578e+00 1.877272974428747035e-03 7.570519618239660353e+00 1.742924178636710009e+00
2.692300573720700196e+00 1.798376592015874225e-03 7.594837261503927905e+00 1.354350801224381451e+00
2.698561328278970439e+00 1.798779619418457414e-03 7.686431014823261521e+00 1.257341025308508886e+00
2.704947056964875252e+00 1.860594623228957294e-03 7.747191011235955216e+00 1.231544735915444111e+00
2.711339925705444909e+00 1.826229981736538378e-03 7.651620370370370239e+00 1.212296829031729528e+00
2.717643416720191052e+00 1.774618570520191145e-03 7.618138424821002452e+00 1.206299314531064315e+00
2.723934694222051256e+00 1.823763048442502126e-03 7.638724911452183797e+00 1.239400656759620745e+00
2.730274673678132036e+00 1.841398355898408350e-03 7.558441558441558072e+00 1.250461819961933951e+00
2.736591263199737778e+00 1.788312012670147501e-03 7.440243902439024559e+00 1.196291115521449733e+00
2.742885231028380222e+00 1.844652457607765493e-03 7.507194244604316502e+00 1.182386740372762812e+00
2.749161241756704843e+00 1.804773587711254630e-03 7.686732186732187166e+00 1.499714731188168670e+00
2.755398232824302962e+00 1.776157869081165970e-03 7.928128872366790425e+00 2.417859920801173956e+00
2.761751565609168679e+00 1.857903093933079139e-03 8.598566308243727363e+00 3.420319639264863376e+00
2.768124311574730267e+00 1.813883183384283311e-03 9.358282208588956763e+00 4.008386894203249895e+00
2.774423663616722546e+00 1.776295681999270643e-03 9.870162297128588946e+00 4.811862038872966707e+00
2.780754869867226198e+00 1.842436817654598789e-03 1.053593179049939010e+01 6.375838025592247327e+00
2.787077464795406190e+00 1.805278297034774168e-03 9.158749999999999503e+00 4.446908687504165236e+00
2.793346642012575654e+00 1.793644434711254678e-03 7.984867591424968047e+00 2.556253188564478585e+00
2.799634253246212179e+00 1.838111547031318375e-03 7.539702233250620722e+00 1.662522684324142519e+00
2.805924842988945844e+00 1.808245895551135627e-03 7.200757575757576134e+00 1.210372001747404225e+00
2.812167973206011862e+00 1.789098639402584082e-03 7.039641943734014973e+00 1.111904164810870732e+00
2.818496662748549042e+00 1.874446068014908040e-03 6.995110024449878061e+00 1.142090665476699129e+00
2.824858807967614460e+00 1.791571154666717633e-03 6.905732484076432698e+00 1.164184160528366707e+00
2.831150482550185643e+00 1.815112775054883139e-03 6.927848101265822400e+00 1.123858177160896865e+00
2.837475400148095517e+00 1.850316795954077458e-03 6.929016189290162053e+00 1.129190928563113649e+00
2.843805018276897911e+00 1.786824753329564535e-03 6.888318356867778824e+00 1.141003778183249828e+00
2.850131561922547352e+00 1.845583173970813699e-03 6.862671660424469522e+00 1.132736433641458262e+00
2.856484494638581229e+00 1.841115527677602507e-03 6.823163138231631564e+00 1.092093359704307876e+00
2.862782859862781137e+00 1.780809355167121575e-03 6.784438775510204245e+00 1.098093542628850505e+00
2.869068523143336158e+00 1.847699945098150954e-03 6.793865030674846928e+00 1.115514236796540049e+00
2.875378514069953706e+00 1.802909528894259443e-03 6.695380774032459570e+00 1.100657101226056200e+00
2.881671995666307051e+00 1.819305449905813353e-03 6.633540372670807095e+00 1.105338794812459557e+00
2.887980092673573917e+00 1.848812746508326317e-03 6.656862745098039547e+00 1.150755523011240733e+00
2.894292086458025270e+00 1.795011172749967111e-03 6.581658291457286758e+00 1.160636775787310837e+00
2.900588101801901963e+00 1.834444505730529681e-03 6.458590852904820601e+00 1.160389402494066857e+00
2.906894294921833044e+00 1.834235081131648307e-03 6.375464684014869654e+00 1.163046071889537902e+00
2.913143215321425394e+00 1.775388414920497622e-03 6.339308578745198375e+00 1.110664480956775391e+00
2.919469846096636179e+00 1.902110692867622259e-03 6.414868105515587615e+00 1.184871920142779311e+00
2.925831071463227850e+00 1.799019204260941503e-03 6.285532994923857864e+00 1.141644001790258267e+00
2.932125236913744715e+00 1.849572311535908030e-03 6.289245982694684933e+00 1.098715783694808268e+00
2.938426190430696305e+00 1.829943172517629413e-03 6.257178526841448374e+00 1.089776805423859019e+00
2.944698497868602605e+00 1.792371922793937686e-03 6.151015228426396142e+00 1.084723293358459628e+00
2.951032364443879619e+00 1.872648010744969562e-03 6.152912621359223344e+00 9.759771816689508661e-01
2.957349976869245278e+00 1.772646084934545842e-03 6.089514066496163558e+00 9.726591871711526283e-01
2.963641534615172990e+00 1.843499637433317897e-03 6.027160493827160792e+00 1.021636081730365131e+00
2.969974563050315375e+00 1.835483252247156055e-03 5.937888198757764080e+00 1.062536691737164141e+00
2.976261971728969780e+00 1.784595762971840369e-03 5.982142857142856762e+00 1.105258847958818347e+00
2.982555079221103078e+00 1.856376802478345786e-03 6.089351285189718688e+00 1.083178777362580059e+00
2.988860230475899549e+00 1.767956570045068222e-03 6.092189500640205146e+00 1.071965266803198702e+00
2.995178874680174186e+00 1.856934622757372335e-03 6.136919315403423170e+00 1.127995580367184170e+00
3.001496400543723020e+00 1.797819739674591305e-03 6.197718631178707582e+00 1.178253316257421579e+00
3.007822553902104179e+00 1.849516356328991537e-03 6.306930693069307203e+00 1.196213145563391977e+00
3.014155913686516808e+00 1.844070628166239031e-03 6.171428571428571708e+00 1.144532932871606512e+00
3.020427983220980828e+00 1.780401570183770890e-03 5.925641025641025905e+00 1.063142909872098807e+00
3.026726854870708916e+00 1.864734463497724846e-03 7.315403422982885040e+00 2.245544192461369093e+01
3.033042693621903041e+00 1.790509691971886499e-03 1.609948979591836604e+01 1.295594199196075067e+02
3.039417687211595442e+00 1.892848977299335135e-03 1.821256038647343090e+01 1.707315490414192993e+02
3.045771113053035606e+00 1.809002971513908259e-03 8.788339670468948484e+00 5.193422818446570233e+01
3.052089874155329063e+00 1.844438578281415919e-03 5.761786600496278332e+00 2.756905341934468900e+00
3.058386304167925118e+00 1.824217551217444024e-03 5.665413533834586346e+00 1.076829810106694429e+00
3.064635661305841197e+00 1.781811879387494579e-03 5.705128205128205288e+00 1.135603654779918870e+00
3.070942258104439215e+00 1.879278577764203085e-03 5.773333333333333428e+00 1.194120275484524152e+00
3.077306102136554866e+00 1.789896323379901438e-03 5.693773824650572024e+00 1.251628299337290029e+00
3.083610248093582751e+00 1.842323938384468965e-03 5.637146371463714445e+00 1.330684018887311471e+00
3.089899276602742884e+00 1.781295098450355954e-03 5.644585987261146798e+00 1.368193786528217881e+00
3.096219282790054539e+00 1.849962857272845727e-03 5.726715686274509665e+00 1.408910854607992924e+00
3.102516781183005889e+00 1.793151767743564459e-03 5.803548795944233341e+00 1.421522779141751291e+00
3.108846425703184035e+00 1.844538984569745127e-03 5.833948339483394641e+00 1.461442519010287322e+00
3.115155056293756886e+00 1.812510444856532069e-03 5.869510664993726756e+00 1.623347000133084750e+00
3.121484332076036150e+00 1.832521331068808152e-03 5.878411910669974816e+00 1.860508608373437012e+00
3.127777573742708483e+00 1.818133687887086257e-03 5.922693266832917303e+00 2.147064828160127004e+00
3.134074710556275623e+00 1.800750836428910992e-03 6.032786885245901232e+00 2.647700072131610849e+00
3.140350968701055567e+00 1.840082388152106639e-03 6.299261083743842526e+00 3.480872933118891677e+00
3.146669598331559570e+00 1.795769837056059460e-03 6.699494949494949836e+00 4.649206961392475357e+00
3.152959210157879166e+00 1.842768641532451131e-03 7.128834355828220559e+00 6.226068413202832552e+00
3.159264892205651432e+00 1.791857333635609589e-03 8.168354430379746844e+00 1.060312691013325193e+01
3.165581888857809112e+00 1.858342078644047027e-03 1.011650485436893199e+01 2.005934557026529319e+01
3.171905560319084216e+00 1.782720971754531017e-03 1.677439797211660277e+01 5.673671898928618873e+01
3.178180461481988406e+00 1.828434529921516482e-03 4.339557739557739779e+01 2.178215576621807941e+02
3.184506679420991304e+00 1.810619157308176325e-03 1.534732254047322613e+02 8.515407964855030514e+02
3.190846230582273346e+00 1.831490456789015321e-03 3.425134474327628595e+02 1.964759772690615819e+03
3.197132365687451294e+00 1.780884113596707067e-03 5.921303797468353878e+02 3.189538434069524556e+03
3.203454230992797136e+00 1.862619862555806765e-03 6.135512665862485164e+02 3.270390710238538304e+03
3.209790152929830498e+00 1.796864404628749357e-03 4.518603773584905525e+02 2.373464575207270173e+03
3.216105270782768422e+00 1.849581865447865814e-03 2.187766990291262061e+02 1.132095906007817575e+03
3.222383723154825574e+00 1.773184836801974633e-03 7.564086294416243561e+01 3.659434628829243366e+02
3.228652903688512765e+00 1.829814433570467642e-03 2.626431181485992639e+01 1.051106713816657674e+02
3.234977992221026444e+00 1.801123950508762587e-03 1.466915422885572085e+01 4.675734789647842149e+01
3.241301441286830176e+00 1.830570155328411054e-03 1.084447144592952661e+01 2.800783037568245959e+01
3.247581817024004280e+00 1.774748969754167847e-03 8.953223767383059695e+00 1.840959124860698282e+01
3.253885986942128827e+00 1.868811343678552150e-03 7.634730538922156029e+00 1.272449792169315330e+01
3.260235987169183947e+00 1.804603356501592029e-03 7.032499999999999751e+00 8.972749543757482016e+00
3.266546856392692710e+00 1.857627301288636550e-03 6.367788461538461675e+00 6.466614011824217023e+00
3.272886904023045052e+00 1.792569475559808913e-03 5.961249999999999716e+00 5.096292770239957193e+00
3.279153478698136670e+00 1.837211362056317054e-03 5.566060606060606375e+00 3.858436762680823140e+00
3.285516195699416553e+00 1.819318898053023329e-03 5.308353808353808212e+00 3.111149709651032769e+00
3.291677990232397821e+00 1.824817096246810931e-03 5.111402359108780935e+00 2.611257562449694980e+00
3.298068987764390059e+00 1.863784166448585874e-03 5.047945205479452468e+00 2.278057891615798081e+00
3.304430978840338096e+00 1.814787339162488022e-03 4.918604651162790553e+00 2.036855357115105125e+00
3.310737564052387061e+00 1.817945227602999880e-03 4.778273809523809312e+00 1.740937876440692866e+00
3.317033906120231190e+00 1.800198345421728579e-03 4.627118644067796716e+00 1.567382196509846448e+00
3.323313479518194669e+00 1.810036704891648416e-03 4.625391849529780330e+00 1.436260188467506138e+00
3.329645772824664451e+00 1.853775369266378323e-03 4.581903276131045644e+00 1.338574451443819147e+00
3.335990548707715053e+00 1.826590486813650920e-03 4.534510433386837569e+00 1.231959730296219080e+00
3.342268739174953929e+00 1.807641793864574143e-03 4.476345840130505849e+00 1.227328403080524488e+00
3.348554594221377023e+00 1.807536448754866812e-03 4.330592105263157521e+00 1.124547846963750652e+00
3.354810866618635590e+00 1.798386852034845364e-03 4.236180904522613311e+00 1.096617819550413708e+00
3.361143554435736203e+00 1.860575678898459748e-03 4.177049180327868427e+00 9.826826261711107957e-01
3.367505271257411170e+00 1.829077091643749146e-03 4.141891891891892108e+00 1.030139531493789118e+00
3.373804785089639324e+00 1.803149868685275390e-03 4.046793760831889131e+00 1.007582485382642501e+00
3.380079784639911100e+00 1.805631642174917659e-03 3.913884007029877043e+00 9.962091595371378450e-01
3.386416571036835244e+00 1.843579116849991192e-03 3.889084507042253502e+00 1.008678371499820647e+00
3.392732849186819166e+00 1.821713749179523084e-03 3.896551724137931050e+00 1.009033607134408816e+00
3.399077842768783331e+00 1.840157085703132342e-03 3.757246376811594235e+00 8.693953638459026578e-01
3.405368445234043140e+00 1.771416845865005909e-03 3.662213740458015288e+00 8.503188061782022134e-01
3.411642977450664915e+00 1.840004348347408980e-03 3.584586466165413654e+00 8.120083191181907134e-01
3.417946432239648225e+00 1.816648589106147462e-03 3.535922330097087229e+00 7.828518430715899479e-01
3.424268333461439884e+00 1.838339958730071926e-03 3.586073500967117855e+00 7.855141630818551768e-01
3.430601598134079389e+00 1.799761940178920376e-03 3.659318637274548980e+00 7.540717620974028979e-01
3.436922606236269218e+00 1.844213366763177700e-03 3.541999999999999815e+00 7.316556567129136601e-01
3.443269856433799347e+00 1.834668830692703879e-03 3.572597137014315027e+00 7.717472789206862860e-01
3.449516618902171317e+00 1.769622948488585408e-03 3.561965811965811746e+00 7.202281174492121130e-01
3.455771942280530862e+00 1.817195070858158281e-03 3.505285412262156619e+00 7.353100795371538823e-01
3.462154010515302804e+00 1.866018191136946868e-03 3.419831223628691852e+00 7.531556926046468758e-01
3.468478914699885340e+00 1.799468636805881495e-03 3.450110864745011163e+00 7.608456103845755436e-01
3.474737530089159865e+00 1.798535080277152308e-03 3.426008968609865590e+00 6.182651573410221646e-01
3.481027808853469629e+00 1.828779808500339806e-03 3.273755656108597201e+00 6.944337861952201152e-01
3.487370903609774420e+00 1.855504762412056021e-03 3.319004524886878027e+00 7.389294055086893520e-01
3.493710577164840458e+00 1.791815171782784382e-03 3.297872340425532123e+00 7.207921132752714843e-01
3.499981309375833849e+00 1.817721919481020843e-03 3.207637231503579933e+00 6.911358263950090342e-01
3.506294281862427642e+00 1.840208171226962808e-03 3.220623501199040728e+00 7.441591288769179302e-01
3.512643170548069183e+00 1.819719049123772565e-03 3.211302211302211163e+00 7.302507260843461578e-01
3.518887929185086527e+00 1.780316295825717758e-03 3.166666666666666519e+00 7.077108879017610654e-01
3.525201780775713889e+00 1.871585280235478531e-03 3.047146401985111552e+00 6.850972377856363593e-01
3.531587235286628879e+00 1.812415240060859375e-03 3.117187500000000000e+00 7.952393343882917520e-01
3.537791204901774123e+00 1.765649031450039182e-03 3.152588555858310659e+00 7.356393156979366132e-01
3.544104483213670331e+00 1.881636984785636617e-03 3.250000000000000000e+00 6.716932893813961636e-01
3.550526160049383151e+00 1.823753900979235669e-03 3.081967213114753967e+00 6.242436972019596020e-01
3.556826252644191833e+00 1.805941154371571225e-03 3.123943661971830821e+00 6.272462115934556159e-01
3.563110991539715666e+00 1.831382697511484874e-03 3.096590909090909172e+00 6.302337679565630513e-01
3.569418747584309326e+00 1.819035597463529485e-03 3.110465116279069964e+00 7.130690112596544949e-01
3.575721219182565580e+00 1.815191134896390569e-03 3.056379821958457033e+00 6.737669542352394680e-01
3.582041784633743120e+00 1.836067019019354488e-03 3.039039039039038936e+00 6.519352837581370297e-01
3.588351193306853926e+00 1.816205673054769026e-03 3.114551083591331260e+00 6.720334674667574060e-01
3.594644124218077774e+00 1.816162507538995278e-03 3.151419558359621398e+00 7.146137487897196161e-01
3.600965899690116157e+00 1.832434222657099978e-03 3.239616613418530466e+00 7.998968995206284793e-01
3.607301933810233674e+00 1.823864462282996299e-03 3.144262295081967196e+00 9.457354173920702323e-01
3.613589615564896995e+00 1.801875725405921403e-03 3.233898305084745850e+00 9.639166488584817172e-01
3.619872304563952703e+00 1.819848024125704684e-03 3.130584192439862523e+00 8.210469907981590154e-01
3.626184481674183946e+00 1.827760715362539709e-03 2.989473684210526283e+00 6.433407728053864849e-01
3.632455309189269510e+00 1.797655079431180383e-03 2.963503649635036652e+00 6.956552866938174873e-01
3.638754857574894697e+00 1.841922947680418475e-03 2.879562043795620419e+00 7.145646152561001552e-01
3.645110863435991444e+00 1.833895812584415653e-03 2.815789473684210620e+00 6.958239387230367168e-01
3.651399341121458253e+00 1.797724079201825547e-03 2.741176470588235325e+00 6.676233044059580735e-01
3.657684783062496781e+00 1.823089633617003442e-03 2.630952380952380931e+00 6.525576171408814519e-01
3.663989311092172851e+00 1.817352227903809700e-03 2.672131147540983687e+00 6.788449174366620875e-01
3.670338462676961733e+00 1.852037082036360515e-03 2.677685950413223104e+00 5.945245690057081589e-01
3.676667454351053799e+00 1.802731285318214709e-03 2.663755458515284058e+00 6.860205025905840026e-01
3.682957402673964431e+00 1.831301914300888494e-03 2.637168141592920456e+00 6.614711271105787604e-01
3.689264510226057059e+00 1.810576500315507495e-03 2.751152073732718861e+00 5.891232416084306589e-01
3.695607159299667099e+00 1.851070780809128090e-03 2.781395348837209180e+00 6.594817441773432876e-01
3.701906411334345837e+00 1.786914693256676148e-03 2.626865671641791078e+00 6.294662946839691964e-01
3.708163258087520564e+00 1.825159420261267002e-03 2.678391959798994915e+00 6.101959376678983693e-01
3.714507337749332283e+00 1.833043865117713490e-03 2.575129533678756300e+00 6.818739467456212955e-01
3.720870273368275249e+00 1.842023606415223082e-03 2.759358288770053402e+00 7.273513641035007637e-01
3.727157013165883104e+00 1.785929560704693081e-03 2.662857142857142811e+00 6.666394552269658824e-01
3.733414267292576749e+00 1.823616893326991065e-03 2.645348837209302140e+00 6.988846093122855763e-01
3.739747614563589284e+00 1.832601406324968355e-03 2.560240963855421548e+00 7.583186511344954805e-01
3.746091684029914770e+00 1.828992002129592063e-03 2.622641509433962348e+00 6.538763566476772926e-01
3.752406222021260618e+00 1.812401454337024109e-03 2.635761589403973648e+00 6.387210368836819807e-01
3.758712131096641595e+00 1.823143945980814458e-03 2.593103448275861922e+00 5.607028034255964188e-01
3.765000355804634324e+00 1.809969724265664184e-03 2.591240875912408814e+00 5.383180749632783257e-01
3.771324791207556704e+00 1.846593531196991230e-03 2.481203007518796966e+00 5.860804592452653061e-01
3.777640884128447674e+00 1.800430178895984180e-03 2.333333333333333481e+00 6.225221886316610886e-01
3.783890033752419058e+00 1.812352582976840126e-03 2.393162393162393098e+00 5.869499047312609630e-01
3.790205950757557840e+00 1.839564216382759279e-03 2.491071428571428381e+00 6.579333366764479329e-01
3.796547481197723339e+00 1.823144808823023381e-03 2.326923076923077094e+00 5.818698180925876429e-01
3.802839460639445335e+00 1.822115437231795494e-03 2.391752577319587569e+00 6.218127360824828864e-01
3.809162628389719529e+00 1.835235423465040759e-03 2.384615384615384581e+00 6.105579948610588836e-01
3.815477698903783743e+00 1.813833779597889004e-03 2.457831325301204739e+00 6.682132348849180170e-01
3.821777178949230969e+00 1.830898415393102585e-03 2.181818181818181657e+00 5.990941607621191878e-01
3.828076951026545771e+00 1.795694771849016581e-03 2.231884057971014634e+00 6.865344511493919333e-01
3.834316772867639944e+00 1.791896653628349866e-03 2.500000000000000000e+00 8.032193289024988081e-01
3.840583618544390898e+00 1.820001018717854217e-03 2.553571428571428381e+00 9.296010774871691362e-01
3.846911872181034475e+00 1.824281646184678762e-03 2.224489795918367374e+00 6.508252538408968446e-01
3.853313008086272973e+00 1.880829953221405115e-03 2.116279069767442067e+00 6.565392657438650081e-01
3.859656947796285653e+00 1.787945514535103963e-03 2.500000000000000000e+00 6.183469424008423143e-01
3.865825284683709118e+00 1.773175751446867720e-03 2.222222222222222321e+00 5.737753105492470196e-01
3.872064552013789740e+00 1.858490478498285668e-03 2.142857142857142794e+00 4.738035414793427824e-01
3.878243048288448236e+00 1.738115315901965106e-03 2.076923076923077094e+00 4.803844614152614212e-01
3.884441558101385361e+00 1.990091083924331716e-03 2.571428571428571619e+00 7.824607964359514556e-01
