# q qerr I(q) I(q)err
6.111313073595031620e-02 3.154100855865873791e-03 0.000000000000000000e+00 1.214285714285714191e+00
6.800242608866982619e-02 2.110752812487300123e-03 0.000000000000000000e+00 0.000000000000000000e+00
7.478812129850326285e-02 1.894856213165734514e-03 0.000000000000000000e+00 0.000000000000000000e+00
8.081736842982174818e-02 1.577734731020807597e-03 0.000000000000000000e+00 0.000000000000000000e+00
8.706192866790804508e-02 2.018057842609979804e-03 0.000000000000000000e+00 0.000000000000000000e+00
9.311361532868518698e-02 1.734318039620741251e-03 0.000000000000000000e+00 0.000000000000000000e+00
9.924832822165428892e-02 1.939409616079583844e-03 0.000000000000000000e+00 0.000000000000000000e+00
1.056867454532435108e-01 2.068262530006435406e-03 0.000000000000000000e+00 0.000000000000000000e+00
1.120935416356093062e-01 1.699923986068800717e-03 0.000000000000000000e+00 0.000000000000000000e+00
1.177168722532570266e-01 1.903764278506084144e-03 0.000000000000000000e+00 0.000000000000000000e+00
1.242406998858587575e-01 2.007415885574503726e-03 0.000000000000000000e+00 0.000000000000000000e+00
1.307844605212421796e-01 1.948859987027574741e-03 0.000000000000000000e+00 0.000000000000000000e+00
1.372938405551752672e-01 1.976444694498947011e-03 0.000000000000000000e+00 0.000000000000000000e+00
1.433626874055373979e-01 1.479129257371093872e-03 0.000000000000000000e+00 0.000000000000000000e+00
1.497414395840910573e-01 2.132896554945924294e-03 0.000000000000000000e+00 0.000000000000000000e+00
1.562016171858009728e-01 1.470810848565314282e-03 0.000000000000000000e+00 0.000000000000000000e+00
1.620883487451751925e-01 1.817360580555445800e-03 0.000000000000000000e+00 0.000000000000000000e+00
1.684939590642719198e-01 1.975568076388520972e-03 0.000000000000000000e+00 0.000000000000000000e+00
1.749358117034872373e-01 1.810730169671130639e-03 0.000000000000000000e+00 0.000000000000000000e+00
1.813634234827302405e-01 1.982290824745188643e-03 0.000000000000000000e+00 0.000000000000000000e+00
1.877608813777307539e-01 1.710969833005861022e-03 0.000000000000000000e+00 0.000000000000000000e+00
1.936838392192468117e-01 1.708352888559126238e-03 0.000000000000000000e+00 0.000000000000000000e+00
1.998200724089964908e-01 1.901042836663710675e-03 0.000000000000000000e+00 0.000000000000000000e+00
2.064988844748374130e-01 2.083185659227047067e-03 0.000000000000000000e+00 0.000000000000000000e+00
2.131062600015138364e-01 1.923054290541973939e-03 0.000000000000000000e+00 0.000000000000000000e+00
2.193208008558340527e-01 1.649587748772136844e-03 0.000000000000000000e+00 0.000000000000000000e+00
2.255197753110727010e-01 1.943898002345461392e-03 0.000000000000000000e+00 0.000000000000000000e+00
2.319084130262620835e-01 1.853433278599466881e-03 0.000000000000000000e+00 0.000000000000000000e+00
2.380456302514551703e-01 1.717913041466973250e-03 0.000000000000000000e+00 0.000000000000000000e+00
2.441826744061198484e-01 1.910984005326162374e-03 0.000000000000000000e+00 0.000000000000000000e+00
2.508567628905887248e-01 1.865639566994751813e-03 0.000000000000000000e+00 0.000000000000000000e+00
2.571616352083493928e-01 2.042758540577210586e-03 0.000000000000000000e+00 0.000000000000000000e+00
2.636090936505812721e-01 1.759536909171210452e-03 0.000000000000000000e+00 0.000000000000000000e+00
2.696276322290375727e-01 1.767913466712890637e-03 0.000000000000000000e+00 0.000000000000000000e+00
2.756934411426098519e-01 1.847457432374286813e-03 0.000000000000000000e+00 0.000000000000000000e+00
2.820483295007140123e-01 1.942127748479487680e-03 0.000000000000000000e+00 0.000000000000000000e+00
2.885873542857223528e-01 1.999902870285049771e-03 0.000000000000000000e+00 0.000000000000000000e+00
2.950059364807982032e-01 1.753155416080761590e-03 0.000000000000000000e+00 0.000000000000000000e+00
3.012776628394395750e-01 1.916275679195857595e-03 0.000000000000000000e+00 0.000000000000000000e+00
3.076468654533095481e-01 1.858480647863890167e-03 0.000000000000000000e+00 0.000000000000000000e+00
3.139397285054469910e-01 1.849733180513128640e-03 0.000000000000000000e+00 0.000000000000000000e+00
3.202097007249891103e-01 1.889977811219999311e-03 0.000000000000000000e+00 0.000000000000000000e+00
3.264390569218261762e-01 1.757358001834326191e-03 0.000000000000000000e+00 0.000000000000000000e+00
3.326951465344144543e-01 1.930481388006281569e-03 0.000000000000000000e+00 0.000000000000000000e+00
3.390239669727912464e-01 1.785238221274862988e-03 0.000000000000000000e+00 0.000000000000000000e+00
3.452290355408559885e-01 1.822729964848564038e-03 0.000000000000000000e+00 0.000000000000000000e+00
3.515217579766085620e-01 1.894166946962649433e-03 0.000000000000000000e+00 0.000000000000000000e+00
3.581115149106128270e-01 1.984833837990382030e-03 0.000000000000000000e+00 0.000000000000000000e+00
3.646365217867122976e-01 1.807385512883236643e-03 0.000000000000000000e+00 0.000000000000000000e+00
3.707522342694583029e-01 1.646676631311451595e-03 0.000000000000000000e+00 0.000000000000000000e+00
3.768404479121448269e-01 1.835047814059704218e-03 0.000000000000000000e+00 0.000000000000000000e+00
3.831651369708888866e-01 1.834489868729198949e-03 0.000000000000000000e+00 0.000000000000000000e+00
3.894643253735652899e-01 1.853753096359237081e-03 0.000000000000000000e+00 0.000000000000000000e+00
3.958807651630259494e-01 1.912159574900255954e-03 0.000000000000000000e+00 0.000000000000000000e+00
4.022473572087105209e-01 1.746533598099251966e-03 0.000000000000000000e+00 0.000000000000000000e+00
4.083991683103055381e-01 1.862831917861469243e-03 0.000000000000000000e+00 0.000000000000000000e+00
4.147868792651558945e-01 1.850918924272050396e-03 0.000000000000000000e+00 0.000000000000000000e+00
4.211381020132339281e-01 1.813003092898375071e-03 0.000000000000000000e+00 0.000000000000000000e+00
4.273404438934948479e-01 1.765577699919095717e-03 0.000000000000000000e+00 0.000000000000000000e+00
4.337195733954657406e-01 1.911235613422362228e-03 0.000000000000000000e+00 0.000000000000000000e+00
4.400834723796714920e-01 1.795304431444431784e-03 0.000000000000000000e+00 0.000000000000000000e+00
4.463380503116383125e-01 1.781136916513354146e-03 0.000000000000000000e+00 0.000000000000000000e+00
4.525475293404462862e-01 1.782735370135076804e-03 0.000000000000000000e+00 0.000000000000000000e+00
4.588781844142776345e-01 1.863542184770878652e-03 0.000000000000000000e+00 0.000000000000000000e+00
4.652813857520213814e-01 1.809454061223974295e-03 0.000000000000000000e+00 0.000000000000000000e+00
4.715886271752884884e-01 1.786725641485754782e-03 0.000000000000000000e+00 0.000000000000000000e+00
4.778700308571910971e-01 1.749120838384908864e-03 0.000000000000000000e+00 0.000000000000000000e+00
4.841075358786299798e-01 1.812598873705853009e-03 2.173913043478260809e-02 1.463696367878557780e-01
4.904685449060671165e-01 1.813034819841214708e-03 5.714285714285714107e-02 2.329929490042871032e-01
4.967988078032400945e-01 1.775169993053363985e-03 1.631205673758865382e-01 3.896838827749250500e-01
5.030461340587593089e-01 1.710738770771227935e-03 3.115942028985507206e-01 5.101366929506681025e-01
5.093789740337634209e-01 1.844995629980458740e-03 3.489932885906040227e-01 5.687696734963297862e-01
5.157895609665918979e-01 1.772173611217854692e-03 5.205479452054794232e-01 8.149245872731961660e-01
5.220653538623039047e-01 1.710912446064493482e-03 6.713286713286713558e-01 1.011209122623385470e+00
5.282420832211931483e-01 1.776221308977217429e-03 8.581081081081081141e-01 1.275757269493187351e+00
5.345849814872509764e-01 1.797460663252185451e-03 1.157894736842105310e+00 1.588131186275224316e+00
5.409400198384390901e-01 1.769240412124692928e-03 1.346405228758170036e+00 1.800484553706162227e+00
5.471612929737256215e-01 1.671871176479489780e-03 1.587837837837837940e+00 1.992292489696141367e+00
5.535187503546902255e-01 1.843477994232445120e-03 1.864197530864197594e+00 2.294486875058141973e+00
5.599303633336802921e-01 1.774845713676194252e-03 2.388535031847133894e+00 2.736504695704461199e+00
5.661980099607780703e-01 1.715649351238413218e-03 2.837662337662337553e+00 3.282954027688638199e+00
5.724333289920446877e-01 1.764199560704661452e-03 3.424999999999999822e+00 3.832855495580282046e+00
5.786575496797814466e-01 1.687338640378493104e-03 4.292207792207792139e+00 4.544257727411088688e+00
5.849918082512260975e-01 1.882166412490617838e-03 4.808139534883721034e+00 5.316427341316750876e+00
5.913559560974818163e-01 1.673563701773732749e-03 6.152866242038216527e+00 6.198666425529614443e+00
5.976003341774964728e-01 1.789272139650604403e-03 6.721893491124260045e+00 6.964258239459643285e+00
6.039710484280985670e-01 1.760471037718898532e-03 7.863095238095238138e+00 7.831451503588671592e+00
6.103455122609070527e-01 1.778153705054047679e-03 8.426900584795321336e+00 8.412001715001343527e+00
6.165941547084902163e-01 1.709282904712068618e-03 8.898203592814370566e+00 8.666878125089427343e+00
6.227886440901039267e-01 1.708031916550016484e-03 8.833333333333333925e+00 8.446669767353881753e+00
6.292222757675741684e-01 1.895555695838723603e-03 8.342245989304812426e+00 8.155716640372057569e+00
6.355837393651907474e-01 1.609918394456906487e-03 8.339393939393939803e+00 7.755089563726149215e+00
6.417201133152361514e-01 1.735489606861494215e-03 7.230337078651685623e+00 7.013144367180077055e+00
6.480234646877054416e-01 1.746502386866512820e-03 6.595505617977527990e+00 6.132191678014653036e+00
6.543745591304535036e-01 1.808595843625667669e-03 5.690217391304347672e+00 5.432907285146524323e+00
6.607410482875138991e-01 1.776914150084337417e-03 5.135869565217391575e+00 4.788311816988397140e+00
6.669765730033264672e-01 1.670208017253243388e-03 4.698863636363636687e+00 4.413138079259649516e+00
6.731673103258457580e-01 1.796482171393593615e-03 4.409574468085106780e+00 4.213625530187333545e+00
6.795850853652600776e-01 1.822834825668488831e-03 4.256544502617801484e+00 4.069221637159420979e+00
6.858902177354958551e-01 1.747430487391250960e-03 4.075268817204301008e+00 3.927447874014198703e+00
6.921278880332987216e-01 1.765781770802452586e-03 4.074074074074074403e+00 3.870275434900587008e+00
6.985070946107704293e-01 1.847715388967816497e-03 3.853535353535353369e+00 3.755538711444992739e+00
7.048037128132643714e-01 1.757666077632949074e-03 3.973544973544973491e+00 3.864669208923092292e+00
7.109847861020758275e-01 1.767854622430342420e-03 3.989583333333333481e+00 3.872962333870979545e+00
7.172345948602801835e-01 1.822657136245004524e-03 4.010101010101010388e+00 3.819137019099479335e+00
7.236608500653414211e-01 1.906739358311473767e-03 4.126829268292683039e+00 3.831085478410928946e+00
7.299519259881649402e-01 1.814756391122580772e-03 4.198979591836734748e+00 3.879195408574982018e+00
7.362298620906445601e-01 1.872001608046580190e-03 4.352941176470587870e+00 4.010367188013962192e+00
7.427109241448597299e-01 1.961252361706546793e-03 4.280373831775700744e+00 4.006687134534351991e+00
7.489749171607754663e-01 1.795506848231544564e-03 4.297435897435897267e+00 4.003233407138734101e+00
7.553119902396251417e-01 1.968290517240121971e-03 4.150684931506849473e+00 3.802293277123589110e+00
7.617428847945948434e-01 1.878647625832918257e-03 4.280193236714976202e+00 3.958741922776245481e+00
7.679897535333021219e-01 1.889655825210407886e-03 4.401913875598086001e+00 4.024233499083432086e+00
7.742716946001383382e-01 1.890740870187222538e-03 4.535211267605633978e+00 4.119985144442294356e+00
7.806130493972306406e-01 1.874127862848933099e-03 4.566037735849056922e+00 4.085548339351659841e+00
7.869955317179381238e-01 1.962138593108325030e-03 4.651785714285714413e+00 4.097849540257898049e+00
7.933337815560531636e-01 1.823456314192357453e-03 4.666666666666666963e+00 4.143459179025898997e+00
7.995722808394026826e-01 1.873920736445982161e-03 4.606334841628958898e+00 4.042398299195216538e+00
8.059029702364099990e-01 1.855844282913126459e-03 4.794520547945205102e+00 4.196404171308427244e+00
8.122482529694946551e-01 1.899897789708842157e-03 4.797356828193832357e+00 4.159525859821608940e+00
8.185971333973350861e-01 1.831057107996742058e-03 5.031390134529147851e+00 4.326273709744571150e+00
8.248840800988579414e-01 1.805078930334647752e-03 5.165919282511210575e+00 4.362511981470484024e+00
8.311527541867054225e-01 1.843524136775542745e-03 5.283842794759824990e+00 4.564833329239447401e+00
8.375116084758876811e-01 1.829773299230467044e-03 5.373913043478260931e+00 4.630342926216883370e+00
8.438261475186588090e-01 1.817550564165925373e-03 5.366379310344827402e+00 4.615016782729522760e+00
8.500843452560248314e-01 1.755513946144033992e-03 5.318584070796459784e+00 4.575028667144313665e+00
8.563647400134730692e-01 1.844487251387733453e-03 5.269709543568464660e+00 4.488222757807332819e+00
8.626696591174244366e-01 1.710203360544058351e-03 5.403508771929824483e+00 4.573129327911022557e+00
8.689830853488446083e-01 1.844123492424595270e-03 5.475609756097560954e+00 4.518628680878893356e+00
8.753179752476163422e-01 1.741457950302257533e-03 5.480851063829787151e+00 4.630217439336565377e+00
8.815756228481118617e-01 1.752464905610253906e-03 5.547717842323651283e+00 4.615169360574618018e+00
8.877944678552249780e-01 1.716242394594354789e-03 5.755274261603375408e+00 4.755437119776263266e+00
8.941407927930166144e-01 1.839522330085644050e-03 5.798418972332015642e+00 4.771671091574838819e+00
9.005003621585947471e-01 1.752218829319661820e-03 5.848979591836735104e+00 4.796793667410915063e+00
9.067627482844141662e-01 1.720498064613873055e-03 5.942622950819671956e+00 4.790333223745245839e+00
9.130278025298368405e-01 1.789374596252915357e-03 5.880952380952381375e+00 4.676142388140543282e+00
9.193563827426239898e-01 1.786117629316656989e-03 5.916666666666666963e+00 4.751426964718934443e+00
9.256709965929463824e-01 1.773964252230773864e-03 5.917647058823529704e+00 4.609958629942448205e+00
9.319487846442510159e-01 1.740175819907428248e-03 6.067999999999999616e+00 4.760635251728492001e+00
9.382375230166524194e-01 1.835219923763222079e-03 6.274809160305343525e+00 4.811122827484100917e+00
9.445114335627492475e-01 1.754301698834087597e-03 6.241106719367588873e+00 4.879793618407725297e+00
9.507739483173833772e-01 1.796477233495237351e-03 6.172413793103448398e+00 4.743785526665568852e+00
9.571000001339345920e-01 1.844157663989784944e-03 6.211320754716981085e+00 4.852689337431854710e+00
9.634651872700409347e-01 1.860525514413665987e-03 6.387218045112781795e+00 4.881876780500947532e+00
9.697902983397413967e-01 1.869026222830578836e-03 6.601503759398496207e+00 5.009900312012145918e+00
9.761731987705594138e-01 1.898719003246270758e-03 6.409594095940959413e+00 4.889156859316909021e+00
9.824546988499620603e-01 1.850375251942234242e-03 6.347169811320754640e+00 4.850367637172996460e+00
9.887603507672997338e-01 1.885371791598095068e-03 6.375000000000000000e+00 4.853790589656221677e+00
9.951547945742836854e-01 1.923480157877882840e-03 6.512455516014235002e+00 4.967051174575714434e+00
1.001497743307979915e+00 1.816985016266823736e-03 6.734082397003745335e+00 5.032052295962786026e+00
1.007730073445106012e+00 1.872875193246743668e-03 6.809352517985611364e+00 5.027873757154418755e+00
1.014110590476311025e+00 1.881534321868284657e-03 6.765957446808510412e+00 5.150679618083667144e+00
1.020442888611849064e+00 1.823625195420996601e-03 6.928315412186379696e+00 5.020208132191634753e+00
1.026691701700078063e+00 1.782759485576686145e-03 6.858695652173913082e+00 5.057046965133050520e+00
1.033057845114525142e+00 1.884320384582664851e-03 6.836734693877550839e+00 4.999659852375539337e+00
1.039437792018165441e+00 1.793463056649077922e-03 6.865724381625441630e+00 5.029862501855672186e+00
1.045681248368910410e+00 1.745618337461533540e-03 6.989361702127659726e+00 5.004238432933345138e+00
1.051944871571292683e+00 1.801987856022948175e-03 7.044827586206896974e+00 5.090038299756153961e+00
1.058324809813473877e+00 1.829265674919061668e-03 7.104377104377104679e+00 5.149897415495798825e+00
1.064596602572098316e+00 1.714864743882408334e-03 7.218309859154929953e+00 5.252659654474569173e+00
1.070868750588993112e+00 1.792957436204007347e-03 7.303030303030302761e+00 5.291512263087468249e+00
1.077195490251847465e+00 1.798916779777443367e-03 7.304347826086956097e+00 5.284105242411767378e+00
1.083505800573759448e+00 1.740543057611223946e-03 7.334470989761092241e+00 5.173625788750524812e+00
1.089676915900379850e+00 1.748165881083384946e-03 7.326530612244898322e+00 5.198763455749110030e+00
1.096052400832523421e+00 1.863573573199493825e-03 7.373801916932907652e+00 5.196041433044607416e+00
1.102364289960501065e+00 1.744372504095847640e-03 7.406779661016948957e+00 5.157385101569872177e+00
1.108625070827478076e+00 1.829094711995288541e-03 7.384364820846905708e+00 5.197728555501958780e+00
1.114924075445366869e+00 1.842999932655674591e-03 6.996753246753247168e+00 4.958920044535482852e+00
1.121282665432693726e+00 1.762017027877181303e-03 6.729007633587785975e+00 5.111911157831884545e+00
1.127553932619258736e+00 1.851826979229859085e-03 6.643122676579925390e+00 5.030901867912552561e+00
1.133905639228342421e+00 1.803927404845938115e-03 6.392156862745098422e+00 5.038353477775521227e+00
1.140144523104706709e+00 1.820967272376473748e-03 6.330708661417323135e+00 4.963072764344941490e+00
1.146455214771981312e+00 1.831860927088285957e-03 6.103585657370517836e+00 4.918219788775220813e+00
1.152869066430118439e+00 1.902391342003174283e-03 6.301158301158301001e+00 4.847803630690975751e+00
1.159252377890596986e+00 1.791659613503928782e-03 6.178423236514523076e+00 5.049755026335599695e+00
1.165575291556828930e+00 1.872439892399787795e-03 6.565737051792829071e+00 5.087376407143174184e+00
1.171828433925186763e+00 1.747387590499659572e-03 6.320346320346319935e+00 5.171774343891364367e+00
1.178029580193284076e+00 1.845903894892485285e-03 6.526748971193415905e+00 5.135650783873746406e+00
1.184400904434957269e+00 1.829516060217846983e-03 6.456066945606694141e+00 5.170622183564100638e+00
1.190737654720273042e+00 1.816225366119703435e-03 6.396624472573839704e+00 4.958525847718463275e+00
1.196977477342464180e+00 1.780548390738201196e-03 6.213973799126637942e+00 5.116430105089914804e+00
1.203312963818603976e+00 1.874247930763579166e-03 6.491735537190082894e+00 5.101845074854433726e+00
1.209645773529357093e+00 1.750259837788138012e-03 6.384955752212388980e+00 5.256220000728737851e+00
1.215952225700388523e+00 1.837678281197498587e-03 6.436440677966102086e+00 5.164449472213719083e+00
1.222254898926581568e+00 1.775628514659025698e-03 6.846441947565542918e+00 4.945224519655739392e+00
1.228537298751265050e+00 1.780223345631782141e-03 7.344202898550724612e+00 5.285214859801039111e+00
1.234759587745337228e+00 1.795376270296014523e-03 7.362007168458781337e+00 5.400052861534084592e+00
1.241110555825225781e+00 1.895169703334604900e-03 7.755033557046980164e+00 5.365460156908638645e+00
1.247523323486311897e+00 1.874537877840588536e-03 7.533783783783784216e+00 5.408075776204393392e+00
1.253854431820907944e+00 1.857283623330970761e-03 7.651006711409396033e+00 5.258855013787081312e+00
1.260138295168494293e+00 1.856490137450314505e-03 7.554817275747508276e+00 5.337730157097340999e+00
1.266501421045549414e+00 1.881588491645209797e-03 7.697749196141479011e+00 5.373295339836694495e+00
1.272807251993681055e+00 1.824447191781883651e-03 7.721311475409835978e+00 5.477534681451956544e+00
1.279100636071537789e+00 1.831925956271344968e-03 7.843949044585987629e+00 5.447841111651506196e+00
1.285385940199903265e+00 1.796864974607813087e-03 7.714743589743589425e+00 5.376625253114264424e+00
1.291734086560349049e+00 1.833790085687247952e-03 7.800613496932514934e+00 5.290296850774785398e+00
1.297999116585571544e+00 1.712347548001254965e-03 7.792880258899676171e+00 5.342792143268938254e+00
1.304332283077917598e+00 1.862331657852500611e-03 7.873156342182890732e+00 5.326900308797823058e+00
1.310629912671008812e+00 1.689758514739712848e-03 8.060897435897436125e+00 5.566009436334516280e+00
1.316859893871710430e+00 1.807323329610554348e-03 8.089552238805969964e+00 5.479787278002957507e+00
1.323169508333509325e+00 1.772103529485381237e-03 7.930091185410334198e+00 5.391460710893849040e+00
1.329416719622044551e+00 1.761213072716576004e-03 7.978851963746223852e+00 5.183296089904496640e+00
1.335676763851219473e+00 1.808340606324402439e-03 7.886904761904761862e+00 5.337867107291269342e+00
1.342102166253144047e+00 1.916040745002256648e-03 8.346478873239437490e+00 5.367279473868027395e+00
1.348432554966731090e+00 1.804515701739407276e-03 8.350453172205437369e+00 5.500260330338883286e+00
1.354697325729501189e+00 1.895450207138361931e-03 8.212464589235127121e+00 5.332905394291773682e+00
1.361035554581970564e+00 1.836151892644552735e-03 8.049418604651162212e+00 5.277257398146815603e+00
1.367445372286436589e+00 1.911657172750392099e-03 8.153424657534246833e+00 5.175167694678384223e+00
1.373833054624600258e+00 1.794265400870382644e-03 8.081159420289855788e+00 5.260134096392908631e+00
1.380048052911932777e+00 1.791287036868802413e-03 8.290598290598291342e+00 5.202084168307766987e+00
1.386332670155489666e+00 1.806335848089170130e-03 8.241573033707865648e+00 5.257275935197402106e+00
1.392624520144640332e+00 1.796075039907524609e-03 8.286111111111111427e+00 5.236044060873380701e+00
1.398923000198597277e+00 1.771229759338340285e-03 8.370786516853932824e+00 5.175956451344417175e+00
1.405184482923453881e+00 1.808998902686751115e-03 8.429347826086956985e+00 5.306526025059274509e+00
1.411475199677901360e+00 1.734371386327675756e-03 8.558988764044944020e+00 5.314364735445413324e+00
1.417706081410672780e+00 1.817237095201347432e-03 8.661290322580645906e+00 5.348093789381482388e+00
1.424046144262549829e+00 1.816956160244514703e-03 8.720867208672085980e+00 5.384150731998799344e+00
1.430457268966005335e+00 1.925855730949348329e-03 8.771208226221078874e+00 5.245982362921358444e+00
1.436865665354877475e+00 1.843763745384080412e-03 8.752688172043010084e+00 5.257866610168295374e+00
1.443084111958556903e+00 1.831535442318516687e-03 8.709677419354838079e+00 5.292354710677298790e+00
1.449466238371406979e+00 1.910439897345804971e-03 8.708860759493671111e+00 5.303027042923492473e+00
1.455780432464144347e+00 1.769262236301017126e-03 8.721621621621622467e+00 5.301975319976977907e+00
1.462109939136078340e+00 1.873282905934200038e-03 8.789473684210525661e+00 5.305481457099233467e+00
1.468414112563870999e+00 1.734923018383166060e-03 8.858666666666666245e+00 5.428902405950333687e+00
1.474680891373796765e+00 1.804015195942032307e-03 9.076142131979695549e+00 5.329448852508487100e+00
1.480924591063775386e+00 1.742163032935032654e-03 9.026109660574412885e+00 5.415085063799548237e+00
1.487138550370334267e+00 1.742602934721402272e-03 9.185089974293058290e+00 5.384892370342012846e+00
1.493462591150057195e+00 1.833511633313982111e-03 9.277227722772277474e+00 5.447369181261821680e+00
1.499809278721849770e+00 1.805357266360340307e-03 9.385390428211586311e+00 5.438787058924258844e+00
1.506175762378094918e+00 1.888906516140883814e-03 9.515892420537896967e+00 5.372587897202914853e+00
1.512543466733061504e+00 1.879653113941155348e-03 9.348039215686274161e+00 5.353651509646089934e+00
1.518927121842702510e+00 1.865813122140227640e-03 9.377450980392156410e+00 5.281592618541807838e+00
1.525176469146275027e+00 1.826629940430822378e-03 9.491315136476426773e+00 5.432237866067156418e+00
1.531416651941075235e+00 1.798854978931840659e-03 9.633663366336634226e+00 5.389165846285738581e+00
1.537728221615372926e+00 1.856986876758172280e-03 9.650118203309693499e+00 5.444729295164246530e+00
1.544096010846849332e+00 1.769518617434322075e-03 9.661800486618004058e+00 5.408754746056085416e+00
1.550405005344789089e+00 1.809055686031393537e-03 9.650118203309693499e+00 5.370409164273201696e+00
1.556696834359960313e+00 1.740139413919524446e-03 9.645631067961165428e+00 5.314823510616843549e+00
1.562969221032702194e+00 1.804120915253569534e-03 9.622641509433961460e+00 5.260489360221801469e+00
1.569251838380229191e+00 1.803338776033149233e-03 9.692124105011933111e+00 5.329473175514067407e+00
1.575556094315494926e+00 1.863019847936644557e-03 9.841491841491841086e+00 5.225690290682439176e+00
1.581892448177514066e+00 1.865480693804838323e-03 9.687500000000000000e+00 5.241947086651987497e+00
1.588269483401412163e+00 1.861295980786164313e-03 9.601382488479263344e+00 5.322684380659666203e+00
1.594574325321363339e+00 1.830133252637398044e-03 9.694444444444444642e+00 5.273835028264517000e+00
1.600916934751582588e+00 1.832077894544300927e-03 9.544419134396354920e+00 5.263972240567162508e+00
1.607201343968552854e+00 1.780442356845074459e-03 9.685185185185185119e+00 5.229207142466276714e+00
1.613445462524496721e+00 1.775524639999344866e-03 9.674311926605504652e+00 5.341851937550958773e+00
1.619730849749851931e+00 1.787630240083115185e-03 9.747178329571106303e+00 5.285405424318608603e+00
1.625979803600224649e+00 1.755895091839796123e-03 9.625287356321839738e+00 5.318704173364286802e+00
1.632226613292544926e+00 1.821174808670054370e-03 9.552572706935123392e+00 5.114804392045733117e+00
1.638606704061473573e+00 1.894452323361247963e-03 9.544468546637743245e+00 5.116406951564173688e+00
1.645050487946952522e+00 1.887301666918968484e-03 9.493478260869565588e+00 5.114870458864433367e+00
1.651415996904310735e+00 1.851783837096881687e-03 9.405701754385965785e+00 5.124620413241274264e+00
1.657788871265904573e+00 1.852242853945953917e-03 9.295896328293736133e+00 5.038460737930962274e+00
1.664006124760511351e+00 1.741113674427757210e-03 9.351473922902494351e+00 5.054324615109796248e+00
1.670281873961185770e+00 1.842366346193471905e-03 9.276955602536997247e+00 5.028459338880047369e+00
1.676541801276667298e+00 1.721555322686186195e-03 9.289237668161435479e+00 4.992141263145535746e+00
1.682793682471841024e+00 1.824670227224382997e-03 9.274261603375528296e+00 4.954565778460288783e+00
1.689107465299970467e+00 1.791603935857043455e-03 9.238611713665942915e+00 4.955986612587252260e+00
1.695415952935033443e+00 1.877357617877282179e-03 9.359081419624217801e+00 4.914211226386735909e+00
1.701806617780016628e+00 1.875253898477295287e-03 9.300626304801669519e+00 4.887462217531113318e+00
1.708145235544118012e+00 1.851238026496159058e-03 9.315789473684210620e+00 4.964282397586953444e+00
1.714469347376187613e+00 1.845626368464784459e-03 9.414078674948239467e+00 4.865179941877101122e+00
1.720739519194126599e+00 1.771881702320935673e-03 9.303418803418804117e+00 4.902515041953140695e+00
1.726990948287859817e+00 1.820993782645452704e-03 9.230612244897958618e+00 4.863057623148645980e+00
1.733361150263370787e+00 1.784216608021570085e-03 9.266528925619834212e+00 4.941785967501667542e+00
1.739571674833123582e+00 1.760427731239605715e-03 9.591194968553459432e+00 5.563974081192069931e+00
1.745887440247851030e+00 1.853392121839796862e-03 9.747494989979960778e+00 6.298190067289358041e+00
1.752250177420427102e+00 1.860925844240075020e-03 9.629554655870444790e+00 5.445876138543422229e+00
1.758607387389414800e+00 1.864192030273802104e-03 9.401999999999999247e+00 4.870646774300101178e+00
1.764972322429467777e+00 1.851098948525789619e-03 9.279999999999999361e+00 4.801683038268979686e+00
1.771273520234028620e+00 1.808016239517707931e-03 9.326612903225806051e+00 4.754118613952065253e+00
1.777586992161852564e+00 1.807004964737956481e-03 9.336633663366336933e+00 4.752093631543115926e+00
1.783840233931820451e+00 1.746107465683986813e-03 9.150712830957230537e+00 4.682157918808396602e+00
1.790071520275328565e+00 1.795583184790444783e-03 9.141732283464566677e+00 4.550014495060842989e+00
1.796393698957722052e+00 1.819993601147859141e-03 9.067193675889328119e+00 4.619254814030933076e+00
1.802712928873270393e+00 1.883216042231023422e-03 9.218390804597701660e+00 4.570084684251146889e+00
1.809114577024696358e+00 1.850157529878445435e-03 9.211240310077519311e+00 4.539487823812494049e+00
1.815345782948464493e+00 1.803540499391122600e-03 9.205533596837945254e+00 4.741089007738600536e+00
1.821700705453981772e+00 1.863872113208649628e-03 9.229477611940298587e+00 4.638821367317266464e+00
1.828034416566336029e+00 1.759461126105644731e-03 9.120078740157479658e+00 4.613143511986824485e+00
1.834289862490237510e+00 1.817049905439401892e-03 9.079096045197740494e+00 4.485120212273476348e+00
1.840620947190598100e+00 1.780340576699249600e-03 8.996153846153845279e+00 4.420013152943027990e+00
1.846876290479544158e+00 1.833628160635640113e-03 9.100189035916823599e+00 4.433245720507446919e+00
1.853225331533147280e+00 1.864396810776891523e-03 9.092592592592593448e+00 4.527378229739213999e+00
1.859586416204100923e+00 1.843230203276794224e-03 9.132710280373832035e+00 4.575985728111086281e+00
1.865884580336470755e+00 1.827085395033201023e-03 9.106145251396647211e+00 4.555074904469654129e+00
1.872200528994375501e+00 1.799198018262535481e-03 9.114814814814815591e+00 4.467992401991348395e+00
1.878453452628845000e+00 1.760356359008985331e-03 9.080979284369114168e+00 4.507912873457369685e+00
1.884712324747962020e+00 1.805687576808031941e-03 9.122262773722628282e+00 4.393909740154505528e+00
1.891113706724730337e+00 1.861939656346446982e-03 9.041366906474820553e+00 4.320998154415626402e+00
1.897400945427566432e+00 1.833350088909791505e-03 8.992647058823528994e+00 4.321833088094619413e+00
1.903772875545957088e+00 1.875180743362649160e-03 8.871478873239436069e+00 4.310666723336727735e+00
1.910018917854334752e+00 1.739883276586547947e-03 8.818525519848771310e+00 4.420992407433936400e+00
1.916236012056648175e+00 1.833205283437960029e-03 8.873684210526315397e+00 4.329778355691922265e+00
1.922638163561010805e+00 1.793373418488206777e-03 8.857142857142857650e+00 4.331246226844077007e+00
1.928888348891847349e+00 1.792288115248428593e-03 8.791366906474820553e+00 4.310475346447736555e+00
1.935240631371640818e+00 1.865766417879262265e-03 8.996539792387542533e+00 4.271290984833872706e+00
1.941608872090050619e+00 1.856644915843207438e-03 8.989455184534270060e+00 4.328945001559071137e+00
1.947917338414854704e+00 1.837601359788319485e-03 9.012259194395797479e+00 4.339757643090156769e+00
1.954236834815996637e+00 1.805754229573221887e-03 8.996503496503496677e+00 4.371512498190391227e+00
1.960488135501994522e+00 1.772905664188001006e-03 8.856637168141592298e+00 4.254356278124459045e+00
1.966755922696415082e+00 1.810201296061439468e-03 8.784853700516350727e+00 4.178234638261323575e+00
1.973091583736556354e+00 1.814240900008777741e-03 8.796551724137930961e+00 4.215895547512848118e+00
1.979420480567132490e+00 1.865397302840512408e-03 8.848896434634974995e+00 4.117625512680540112e+00
1.985762243830389018e+00 1.849873766110382307e-03 8.720338983050847759e+00 4.160666559861517122e+00
1.992143605840229093e+00 1.840662096304069391e-03 8.713567839195979658e+00 4.177937921224320839e+00
1.998372952698491245e+00 1.738412627792555948e-03 8.711775043936730967e+00 4.237551370877437051e+00
2.004614638405731508e+00 1.821010887715033720e-03 8.746688741721854399e+00 4.117679148087903584e+00
2.010981699228176822e+00 1.807963355431743604e-03 8.818181818181818343e+00 4.083551183259412021e+00
2.017216781415232862e+00 1.822968187424302972e-03 8.956155143338953906e+00 4.109753993874680766e+00
2.023555507756473748e+00 1.866836436713831520e-03 8.775609756097560776e+00 4.104688922211537694e+00
2.029945947492921121e+00 1.842053164818473936e-03 8.662828947368421240e+00 4.109629009691650126e+00
2.036236367431154548e+00 1.802040352124230577e-03 8.707438016528925573e+00 4.149663725685251769e+00
2.042538823796997693e+00 1.786279422623429517e-03 8.692939244663381970e+00 4.124951624933385297e+00
2.048720173306640469e+00 1.747373060808409071e-03 8.691525423728814204e+00 4.110455695085188488e+00
2.055017041239767028e+00 1.892889576395914968e-03 8.809076682316119289e+00 4.036127234696095911e+00
2.061465280497128294e+00 1.850343878148330047e-03 8.657051282051282826e+00 4.027403332818052739e+00
2.067778354784032935e+00 1.826644103880053095e-03 8.552334943639291254e+00 3.963623126876318459e+00
2.074107962816127415e+00 1.810449409964311413e-03 8.546031746031745868e+00 3.862869874643764412e+00
2.080392027050733006e+00 1.757304311173108879e-03 8.526058631921824116e+00 3.927189345728139713e+00
2.086560915145909245e+00 1.789004268885935290e-03 8.474878444084279039e+00 3.904935059512143258e+00
2.092907509218693285e+00 1.897916204239676529e-03 8.560975609756097171e+00 3.821896547307688685e+00
2.099341076602548206e+00 1.841856996552926774e-03 8.487500000000000711e+00 3.886351819991339607e+00
2.105598503643897335e+00 1.780460926307301031e-03 8.415335463258786675e+00 3.848660219770769331e+00
2.111872942412509335e+00 1.813036870717739954e-03 8.418209876543210513e+00 3.827709911778095719e+00
2.118179840511383194e+00 1.773074262998883873e-03 8.269291338582677398e+00 3.747381337111792554e+00
2.124489700938873238e+00 1.854176769044688739e-03 8.276758409785932358e+00 3.692952103520547702e+00
2.130866139955553962e+00 1.876679961187130126e-03 8.263237518910742097e+00 3.765529600977433056e+00
2.137196345481136905e+00 1.803165093871285981e-03 8.304953560371517440e+00 3.807933120121416604e+00
2.143477781291089013e+00 1.808033309626025679e-03 8.323664122137405030e+00 3.773290396002325409e+00
2.149749346762158453e+00 1.787076492040512573e-03 8.268817204301075918e+00 3.745396725380907288e+00
2.156014428448592479e+00 1.811767013668930289e-03 8.331811263318112282e+00 3.730657259221731969e+00
2.162388958755252943e+00 1.899773100682969557e-03 8.321167883211678884e+00 3.713393441575602250e+00
2.168776559916051561e+00 1.828625003914755194e-03 8.136636636636636055e+00 3.675399654006449524e+00
2.175079146577416189e+00 1.799027495536281414e-03 7.994029850746268373e+00 3.576033437782693891e+00
2.181358965593887422e+00 1.775037425494343461e-03 8.102409638554217253e+00 3.581482359987959274e+00
2.187625576602315824e+00 1.830837683859201127e-03 8.165680473372781023e+00 3.583246987792784388e+00
2.193923842198696850e+00 1.837507381709080519e-03 8.160058737151247854e+00 3.520803217409834485e+00
2.200310743338333541e+00 1.859271066102410235e-03 7.944045911047346031e+00 3.559045266453971124e+00
2.206637920896229677e+00 1.789161753318371274e-03 7.917037037037037095e+00 3.511941767658436575e+00
2.212855268310565560e+00 1.778695396750237757e-03 7.955817378497791026e+00 3.521160593815975570e+00
2.219155297956861617e+00 1.826812665150635666e-03 8.071942446043165020e+00 3.555211964892520449e+00
2.225534449623195243e+00 1.883537061579874895e-03 8.043723554301832834e+00 3.606468153684644573e+00
2.231816049321749151e+00 1.789850136339156059e-03 7.812041116005874031e+00 3.544919075802214437e+00
2.238124350048766420e+00 1.838516226422660244e-03 7.777932960893854997e+00 3.437281079619684654e+00
2.244461256680506001e+00 1.769483755913013904e-03 7.824891461649783331e+00 3.443914231852319041e+00
2.250672411056880762e+00 1.815340560525242463e-03 7.890961262553801703e+00 3.501097187569931268e+00
2.256976265699253581e+00 1.875232856265233962e-03 7.896408839779005540e+00 3.429061505191419723e+00
2.263404067221236105e+00 1.844596500685106652e-03 7.816804407713498826e+00 3.458620361941343813e+00
2.269740131332425914e+00 1.784620609829179342e-03 7.724186704384724322e+00 3.436006323352031711e+00
2.275928662030326066e+00 1.770462641505800294e-03 7.642450142450142536e+00 3.408740532359116227e+00
2.282234771450446509e+00 1.859120215862977580e-03 7.649051490514905183e+00 3.248880021226131287e+00
2.288651494096741512e+00 1.861574731480084791e-03 7.508819538670285176e+00 3.216667391559215883e+00
2.294929189507614264e+00 1.787386468760323059e-03 7.500000000000000000e+00 3.264014726503460473e+00
2.301123790424945526e+00 1.773889529887621910e-03 7.523611111111111249e+00 3.242753078922938403e+00
2.307427473574251042e+00 1.823767960867003161e-03 7.389715832205683732e+00 3.120743717125720185e+00
2.313824548022820782e+00 1.807223345639351721e-03 7.212481426448737132e+00 3.207955294735684415e+00
2.320154992066300714e+00 1.861695907969135875e-03 7.014792899408283766e+00 3.216283197936309790e+00
2.326479049872378635e+00 1.797363522119922990e-03 7.035439137134052778e+00 3.225290168378005973e+00
2.332811122143054305e+00 1.834923033436536115e-03 7.001519756838905373e+00 3.219431881766934289e+00
2.339146829363451641e+00 1.809933127175767861e-03 6.902668759811616539e+00 3.233184522052387599e+00
2.345346999874724947e+00 1.788822558822959720e-03 6.762057877813504980e+00 3.242489869332489061e+00
2.351591514044208964e+00 1.821961582186779451e-03 6.737007874015747966e+00 3.172673013676023057e+00
2.357940827546205931e+00 1.821480796874143165e-03 6.587025316455696000e+00 3.178199233611806562e+00
2.364269371024037891e+00 1.822839816105960298e-03 6.575320512820512775e+00 3.142715237618582957e+00
2.370575565839220911e+00 1.828742917233826173e-03 6.524115755627009960e+00 3.178419590349434998e+00
2.376891771469677561e+00 1.815523241845057745e-03 6.433656957928802989e+00 3.125791444693143628e+00
2.383240749019818416e+00 1.833462819707767054e-03 6.348874598070739950e+00 3.172845773174048922e+00
2.389601619010945921e+00 1.828185711102788165e-03 6.429967426710097911e+00 3.153230742471778481e+00
2.395961259100775731e+00 1.812604844355751544e-03 6.214626391096979674e+00 3.028807124451341704e+00
2.402160007896914973e+00 1.807533258736503850e-03 6.244776119402985159e+00 2.937686543467091571e+00
2.408453972146052724e+00 1.793232887210479852e-03 6.347953216374269125e+00 2.964096828932131888e+00
2.414771780432101167e+00 1.830638750947721858e-03 6.430416068866571244e+00 2.968342192809635183e+00
2.421058800843912895e+00 1.849123668637423033e-03 6.528995756718528831e+00 3.023408106916340543e+00
2.427397847212681370e+00 1.833909450969152099e-03 6.462500000000000355e+00 2.991991625805273891e+00
2.433701938443864954e+00 1.777285794113256248e-03 6.354430379746835555e+00 2.928841491438901379e+00
2.440001432560962691e+00 1.835928632076300280e-03 6.381668946648426655e+00 2.866595198832500468e+00
2.446276920633820851e+00 1.825543246774167941e-03 6.350756533700137929e+00 2.841505074298292577e+00
2.452612917458465880e+00 1.850886418197054181e-03 6.286472148541114358e+00 2.805926015854745881e+00
2.458937188373468086e+00 1.764090576915684772e-03 6.183561643835616017e+00 2.758197322098247639e+00
2.465235494564519847e+00 1.842465198645606636e-03 6.286657859973580287e+00 2.769689189494229709e+00
2.471581205305689810e+00 1.856761058240425245e-03 6.302631578947368141e+00 2.827193458747666810e+00
2.477865992864338285e+00 1.798850075022648308e-03 6.227696404793608309e+00 2.861259583884621982e+00
2.484122936716935737e+00 1.780971833254360159e-03 6.184940554821664271e+00 2.785197061651511596e+00
2.490467721662181333e+00 1.849468727863495983e-03 6.247765006385695763e+00 2.734338043961625608e+00
2.496849546734450254e+00 1.852734310658727887e-03 6.108556832694763905e+00 2.709399283553197257e+00
2.503105859710241798e+00 1.772860352036017325e-03 6.054089709762532578e+00 2.735681459822532524e+00
2.509322203788900918e+00 1.804578376445024500e-03 6.030769230769230660e+00 2.756645189749601599e+00
2.515643032193938478e+00 1.830400595634155535e-03 6.207808564231737769e+00 2.702950947206594901e+00
2.522012436559997628e+00 1.844427975373299751e-03 6.142679900744417054e+00 2.708944492265868309e+00
2.528376527697731913e+00 1.805263014170996501e-03 6.115577889447235904e+00 2.693161452292816005e+00
2.534662305746367750e+00 1.817191430107880853e-03 6.103274559193955007e+00 2.666527936314412095e+00
2.540923642722284104e+00 1.847774197163838152e-03 6.060643564356436030e+00 2.594283774591269687e+00
2.547222087144660030e+00 1.810867478977307979e-03 5.905940594059406301e+00 2.606816423061428800e+00
2.553540685742163419e+00 1.807658101810726481e-03 5.955936352509179521e+00 2.578597923716377416e+00
2.559925401613222018e+00 1.856915584780679824e-03 6.033532934131736525e+00 2.582088142295874800e+00
2.566280305514876403e+00 1.838802799104265022e-03 5.995157384987893856e+00 2.660803230990515189e+00
2.572544852388987113e+00 1.785952156998167010e-03 5.916564417177913704e+00 2.640004402484075641e+00
2.578799894204640619e+00 1.806472379669163885e-03 5.951632406287787447e+00 2.591964358664573087e+00
2.585123793491197919e+00 1.855120447360665906e-03 5.985898942420681657e+00 2.580733252421581359e+00
2.591472256141813091e+00 1.805120360344933915e-03 5.853396901072705383e+00 2.536696399696820592e+00
2.597744265483155957e+00 1.788819714346394623e-03 5.881294964028777272e+00 2.512112025810010696e+00
2.604038454996993934e+00 1.850630787333012181e-03 6.017482517482517501e+00 2.493524304157811233e+00
2.610374414453144443e+00 1.837105816396599096e-03 6.018626309662398199e+00 2.566852505964243747e+00
2.616634120485421100e+00 1.761050173804210722e-03 6.039379474940334447e+00 2.556226862357876328e+00
2.622940397920966227e+00 1.848634675493098997e-03 6.072810011376564177e+00 2.542788095007709082e+00
2.629323187355575353e+00 1.839581463337864892e-03 6.021689497716894657e+00 2.554119599417597364e+00
2.635681273538560632e+00 1.815290224604702678e-03 5.972508591065292194e+00 2.533919428218218695e+00
2.641934789831782204e+00 1.778405014700361417e-03 6.005868544600938996e+00 2.523824629011805154e+00
2.648176773767660031e+00 1.853093332118325998e-03 6.041713641488162700e+00 2.509844946612997507e+00
2.654514065851063087e+00 1.823524830511773481e-03 5.883615819209039977e+00 2.509393886616753555e+00
2.660817448321032508e+00 1.798052776896779401e-03 5.856655290102389166e+00 2.514530067089459475e+00
2.667123571907564994e+00 1.844852426740933296e-03 5.977777777777777857e+00 2.443024840309727441e+00
2.673472329675100401e+00 1.839448802019330543e-03 5.925802879291251379e+00 2.516821501722015242e+00
2.679761377760365715e+00 1.786299887381436651e-03 5.915158371040724283e+00 2.460215574788795045e+00
2.686129035698236578e+00 1.877272974428747035e-03 5.796394485683987519e+00 2.619104324194600153e+00
2.692300573720700196e+00 1.798376592015874225e-03 5.959595959595959336e+00 2.481017732799549957e+00
2.698561328278970439e+00 1.798779619418457414e-03 6.108323831242873148e+00 2.208312677162732829e+00
2.704947056964875252e+00 1.860594623228957294e-03 6.259550561797753154e+00 2.013243615367080075e+00
2.711339925705444909e+00 1.826229981736538378e-03 6.262731481481481843e+00 1.842031978972386241e+00
2.717643416720191052e+00 1.774618570520191145e-03 6.226730310262530210e+00 1.746851231778781655e+00
2.723934694222051256e+00 1.823763048442502126e-03 6.308146399055489795e+00 1.605363625054723631e+00
2.730274673678132036e+00 1.841398355898408350e-03 6.305785123966941796e+00 1.438264170075818305e+00
2.736591263199737778e+00 1.788312012670147501e-03 6.321951219512195408e+00 1.364768732873677948e+00
2.742885231028380222e+00 1.844652457607765493e-03 6.384892086330935079e+00 1.340136062911236436e+00
2.749161241756704843e+00 1.804773587711254630e-03 6.270270270270270174e+00 1.272855333980174697e+00
2.755398232824302962e+00 1.776157869081165970e-03 6.221809169764560110e+00 1.195571116516790378e+00
2.761751565609168679e+00 1.857903093933079139e-03 6.318996415770609332e+00 1.237673731046321057e+00
2.768124311574730267e+00 1.813883183384283311e-03 6.304294478527607382e+00 1.243801447770868318e+00
2.774423663616722546e+00 1.776295681999270643e-03 6.199750312109862271e+00 1.252333502492978923e+00
2.780754869867226198e+00 1.842436817654598789e-03 6.267965895249695052e+00 1.232584141131927602e+00
2.787077464795406190e+00 1.805278297034774168e-03 6.232499999999999929e+00 1.195296772772351579e+00
2.793346642012575654e+00 1.793644434711254678e-03 6.151324085750315085e+00 1.189483358657963619e+00
2.799634253246212179e+00 1.838111547031318375e-03 6.169975186104218245e+00 1.208881203892198108e+00
2.805924842988945844e+00 1.808245895551135627e-03 6.159090909090909172e+00 1.225833892818422699e+00
2.812167973206011862e+00 1.789098639402584082e-03 6.056265984654731760e+00 1.136232255050297235e+00
2.818496662748549042e+00 1.874446068014908040e-03 6.125916870415648141e+00 1.083413783794717755e+00
2.824858807967614460e+00 1.791571154666717633e-03 6.109554140127388955e+00 1.077084941909466131e+00
2.831150482550185643e+00 1.815112775054883139e-03 6.056962025316456000e+00 1.022836507027860664e+00
2.837475400148095517e+00 1.850316795954077458e-03 5.968866749688667817e+00 1.014337157878450801e+00
2.843805018276897911e+00 1.786824753329564535e-03 5.897304236200256788e+00 9.823092720454033033e-01
2.850131561922547352e+00 1.845583173970813699e-03 5.955056179775280789e+00 1.031547979626622480e+00
2.856484494638581229e+00 1.841115527677602507e-03 5.972602739726027288e+00 1.099852737235131883e+00
2.862782859862781137e+00 1.780809355167121575e-03 5.913265306122449161e+00 1.080919455858827316e+00
2.869068523143336158e+00 1.847699945098150954e-03 5.867484662576686993e+00 1.048256412820576022e+00
2.875378514069953706e+00 1.802909528894259443e-03 5.742821473158551626e+00 9.822164322490484212e-01
2.881671995666307051e+00 1.819305449905813353e-03 5.721739130434782439e+00 9.674139853576763093e-01
2.887980092673573917e+00 1.848812746508326317e-03 5.650735294117646745e+00 9.895968022515679863e-01
2.894292086458025270e+00 1.795011172749967111e-03 5.559045226130653106e+00 8.781146429300266121e-01
2.900588101801901963e+00 1.834444505730529681e-03 5.636588380716934132e+00 8.969069031780687595e-01
2.906894294921833044e+00 1.834235081131648307e-03 5.561338289962825421e+00 9.680619078440142466e-01
2.913143215321425394e+00 1.775388414920497622e-03 5.490396927016645279e+00 9.972230160620775274e-01
2.919469846096636179e+00 1.902110692867622259e-03 5.431654676258992787e+00 9.879586608837090944e-01
2.925831071463227850e+00 1.799019204260941503e-03 5.305837563451776262e+00 9.320839219337359038e-01
2.932125236913744715e+00 1.849572311535908030e-03 5.315203955500617639e+00 9.072828498980963774e-01
2.938426190430696305e+00 1.829943172517629413e-03 5.347066167290886796e+00 8.832345161746838480e-01
2.944698497868602605e+00 1.792371922793937686e-03 5.237309644670050446e+00 8.518868324154676985e-01
2.951032364443879619e+00 1.872648010744969562e-03 5.242718446601942084e+00 8.509696276554202798e-01
2.957349976869245278e+00 1.772646084934545842e-03 5.230179028132992514e+00 9.171553053731749117e-01
2.963641534615172990e+00 1.843499637433317897e-03 5.254320987654320874e+00 9.262057190434094256e-01
2.969974563050315375e+00 1.835483252247156055e-03 5.151552795031055787e+00 8.536819136487454607e-01
2.976261971728969780e+00 1.784595762971840369e-03 5.025510204081633070e+00 8.708101626886870505e-01
2.982555079221103078e+00 1.856376802478345786e-03 5.002447980416156348e+00 8.301225757947100492e-01
2.988860230475899549e+00 1.767956570045068222e-03 5.001280409731114318e+00 8.794131438594881001e-01
2.995178874680174186e+00 1.856934622757372335e-03 5.018337408312958381e+00 9.470990815502726701e-01
3.001496400543723020e+00 1.797819739674591305e-03 5.006337135614701950e+00 8.935585935025379678e-01
3.007822553902104179e+00 1.849516356328991537e-03 4.945544554455445940e+00 8.179223142007097103e-01
3.014155913686516808e+00 1.844070628166239031e-03 4.888198757763975166e+00 8.271976841370153322e-01
3.020427983220980828e+00 1.780401570183770890e-03 4.885897435897436303e+00 8.812365796255952066e-01
3.026726854870708916e+00 1.864734463497724846e-03 6.124694376528116990e+00 1.848211340001503444e+01
3.033042693621903041e+00 1.790509691971886499e-03 1.333418367346938815e+01 1.067089295011534489e+02
3.039417687211595442e+00 1.892848977299335135e-03 1.510628019323671545e+01 1.406680049803393047e+02
3.045771113053035606e+00 1.809002971513908259e-03 7.349809885931558817e+00 4.278550271336307986e+01
3.052089874155329063e+00 1.844438578281415919e-03 4.861042183622828361e+00 2.189331726321446236e+00
3.058386304167925118e+00 1.824217551217444024e-03 4.718045112781954487e+00 8.873083085641764178e-01
3.064635661305841197e+00 1.781811879387494579e-03 4.633333333333333748e+00 8.084225433194012211e-01
3.070942258104439215e+00 1.879278577764203085e-03 4.581818181818182012e+00 8.070215279386753204e-01
3.077306102136554866e+00 1.789896323379901438e-03 4.606099110546378661e+00 8.069715479884810305e-01
3.083610248093582751e+00 1.842323938384468965e-03 4.530135301353013233e+00 7.563115490232761307e-01
3.089899276602742884e+00 1.781295098450355954e-03 4.566878980891719841e+00 8.149133301453008738e-01
3.096219282790054539e+00 1.849962857272845727e-03 4.625000000000000000e+00 8.559731017855596313e-01
3.102516781183005889e+00 1.793151767743564459e-03 4.588086185044359944e+00 8.037586736582947866e-01
3.108846425703184035e+00 1.844538984569745127e-03 4.615006150061500279e+00 7.531091202543109819e-01
3.115155056293756886e+00 1.812510444856532069e-03 4.611041405269761917e+00 7.904971015455648509e-01
3.121484332076036150e+00 1.832521331068808152e-03 4.563275434243176498e+00 7.945504747546278113e-01
3.127777573742708483e+00 1.818133687887086257e-03 4.512468827930174342e+00 7.514638918364285880e-01
3.134074710556275623e+00 1.800750836428910992e-03 4.488020176544766926e+00 8.024428433474217748e-01
3.140350968701055567e+00 1.840082388152106639e-03 4.399014778325122776e+00 8.178415562228137370e-01
3.146669598331559570e+00 1.795769837056059460e-03 4.356060606060606410e+00 7.350762429508368445e-01
3.152959210157879166e+00 1.842768641532451131e-03 4.309202453987730053e+00 7.882497377988625376e-01
3.159264892205651432e+00 1.791857333635609589e-03 4.227848101265823111e+00 7.439334306286140563e-01
3.165581888857809112e+00 1.858342078644047027e-03 4.177184466019417286e+00 7.326539836387496729e-01
3.171905560319084216e+00 1.782720971754531017e-03 4.179974651457540880e+00 7.456027190346058431e-01
3.178180461481988406e+00 1.828434529921516482e-03 4.142506142506142908e+00 7.659939132909393544e-01
3.184506679420991304e+00 1.810619157308176325e-03 4.109589041095890849e+00 7.638026332412525266e-01
3.190846230582273346e+00 1.831490456789015321e-03 4.140586797066014846e+00 8.041556986647295791e-01
3.197132365687451294e+00 1.780884113596707067e-03 4.112658227848100978e+00 7.705711148063374427e-01
3.203454230992797136e+00 1.862619862555806765e-03 4.078407720144753057e+00 7.656544036017897126e-01
3.209790152929830498e+00 1.796864404628749357e-03 4.002515723270440695e+00 8.256862853756974374e-01
3.216105270782768422e+00 1.849581865447865814e-03 3.942961165048543659e+00 8.231054562683640663e-01
3.222383723154825574e+00 1.773184836801974633e-03 3.920050761421319585e+00 7.900742501338585688e-01
3.228652903688512765e+00 1.829814433570467642e-03 3.952496954933008677e+00 7.686772083694487501e-01
3.234977992221026444e+00 1.801123950508762587e-03 3.919154228855721289e+00 7.207515590211632794e-01
3.241301441286830176e+00 1.830570155328411054e-03 3.879708383961117946e+00 7.219613813801050162e-01
3.247581817024004280e+00 1.774748969754167847e-03 3.814159292035398163e+00 7.230148070074419175e-01
3.253885986942128827e+00 1.868811343678552150e-03 3.816766467065868085e+00 7.396244685007117292e-01
3.260235987169183947e+00 1.804603356501592029e-03 3.847500000000000142e+00 7.609554027668107290e-01
3.266546856392692710e+00 1.857627301288636550e-03 3.751201923076922906e+00 7.232821159345570461e-01
3.272886904023045052e+00 1.792569475559808913e-03 3.761249999999999982e+00 6.938659812961018858e-01
3.279153478698136670e+00 1.837211362056317054e-03 3.772121212121211986e+00 7.425842746508157788e-01
3.285516195699416553e+00 1.819318898053023329e-03 3.738329238329238358e+00 7.088441442852844165e-01
3.291677990232397821e+00 1.824817096246810931e-03 3.747051114023590923e+00 7.864580553126500062e-01
3.298068987764390059e+00 1.863784166448585874e-03 3.715068493150684770e+00 7.424960818756405345e-01
3.304430978840338096e+00 1.814787339162488022e-03 3.588662790697674243e+00 7.530753156516328817e-01
3.310737564052387061e+00 1.817945227602999880e-03 3.500000000000000000e+00 7.495038041137298546e-01
3.317033906120231190e+00 1.800198345421728579e-03 3.477657935285054069e+00 7.231625650756797752e-01
3.323313479518194669e+00 1.810036704891648416e-03 3.445141065830720883e+00 6.937078133914542644e-01
3.329645772824664451e+00 1.853775369266378323e-03 3.411856474258970540e+00 6.710898153024228430e-01
3.335990548707715053e+00 1.826590486813650920e-03 3.468699839486356407e+00 6.969416642171573084e-01
3.342268739174953929e+00 1.807641793864574143e-03 3.394779771615008102e+00 7.086716142449298594e-01
3.348554594221377023e+00 1.807536448754866812e-03 3.335526315789473895e+00 7.127690603410787862e-01
3.354810866618635590e+00 1.798386852034845364e-03 3.346733668341708601e+00 6.478580405765685946e-01
3.361143554435736203e+00 1.860575678898459748e-03 3.334426229508196560e+00 6.740037887350766033e-01
3.367505271257411170e+00 1.829077091643749146e-03 3.312500000000000000e+00 6.834184741509485850e-01
3.373804785089639324e+00 1.803149868685275390e-03 3.197573656845754009e+00 6.924627348292914375e-01
3.380079784639911100e+00 1.805631642174917659e-03 3.189806678383128258e+00 6.227817371393022938e-01
3.386416571036835244e+00 1.843579116849991192e-03 3.160211267605633978e+00 6.189225444661086151e-01
3.392732849186819166e+00 1.821713749179523084e-03 3.157894736842105310e+00 6.324857374224288620e-01
3.399077842768783331e+00 1.840157085703132342e-03 3.090579710144927716e+00 6.292415410907299389e-01
3.405368445234043140e+00 1.771416845865005909e-03 3.127862595419847125e+00 6.531793481749340602e-01
3.411642977450664915e+00 1.840004348347408980e-03 3.186090225563909861e+00 6.769057723303630869e-01
3.417946432239648225e+00 1.816648589106147462e-03 3.091262135922330234e+00 6.532992322729982426e-01
3.424268333461439884e+00 1.838339958730071926e-03 2.990328820116054054e+00 6.280699811331337257e-01
3.430601598134079389e+00 1.799761940178920376e-03 3.002004008016032177e+00 6.548722894052425580e-01
3.436922606236269218e+00 1.844213366763177700e-03 2.978000000000000203e+00 6.599030231784063227e-01
3.443269856433799347e+00 1.834668830692703879e-03 2.971370143149284271e+00 6.746513939573418606e-01
3.449516618902171317e+00 1.769622948488585408e-03 2.929487179487179294e+00 6.365011264560621607e-01
3.455771942280530862e+00 1.817195070858158281e-03 2.909090909090909172e+00 6.881663597482927663e-01
3.462154010515302804e+00 1.866018191136946868e-03 2.837552742616033630e+00 7.105728269894671101e-01
3.468478914699885340e+00 1.799468636805881495e-03 2.871396895787139858e+00 7.406661124529992923e-01
3.474737530089159865e+00 1.798535080277152308e-03 2.919282511210762543e+00 7.212555273156702196e-01
3.481027808853469629e+00 1.828779808500339806e-03 2.945701357466063541e+00 6.854046166640964666e-01
3.487370903609774420e+00 1.855504762412056021e-03 2.828054298642534103e+00 7.019046179859070866e-01
3.493710577164840458e+00 1.791815171782784382e-03 2.900709219858156107e+00 6.990883906239636625e-01
3.499981309375833849e+00 1.817721919481020843e-03 2.830548926014319733e+00 5.817419374578481905e-01
3.506294281862427642e+00 1.840208171226962808e-03 2.714628297362110310e+00 6.189559471147455527e-01
3.512643170548069183e+00 1.819719049123772565e-03 2.705159705159704941e+00 6.674685838143797900e-01
3.518887929185086527e+00 1.780316295825717758e-03 2.769230769230769162e+00 6.793662204867563226e-01
3.525201780775713889e+00 1.871585280235478531e-03 2.749379652605459246e+00 6.728273084616890332e-01
3.531587235286628879e+00 1.812415240060859375e-03 2.799479166666666519e+00 6.660662172255601421e-01
3.537791204901774123e+00 1.765649031450039182e-03 2.828337874659400342e+00 6.623663794676256655e-01
3.544104483213670331e+00 1.881636984785636617e-03 2.763020833333333481e+00 7.000705259610947584e-01
3.550526160049383151e+00 1.823753900979235669e-03 2.601092896174863167e+00 6.782343191206642308e-01
3.556826252644191833e+00 1.805941154371571225e-03 2.611267605633802891e+00 6.346035630264857952e-01
3.563110991539715666e+00 1.831382697511484874e-03 2.636363636363636243e+00 6.398040118299657131e-01
3.569418747584309326e+00 1.819035597463529485e-03 2.575581395348837344e+00 6.393366500383100837e-01
3.575721219182565580e+00 1.815191134896390569e-03 2.492581602373887151e+00 6.034619107859757747e-01
3.582041784633743120e+00 1.836067019019354488e-03 2.477477477477477485e+00 6.656716866970899815e-01
3.588351193306853926e+00 1.816205673054769026e-03 2.541795665634674961e+00 6.600674376363071527e-01
3.594644124218077774e+00 1.816162507538995278e-03 2.507886435331230235e+00 6.446532590769192828e-01
3.600965899690116157e+00 1.832434222657099978e-03 2.370607028753993539e+00 6.227327995177225350e-01
3.607301933810233674e+00 1.823864462282996299e-03 2.383606557377049295e+00 5.740327269594769355e-01
3.613589615564896995e+00 1.801875725405921403e-03 2.416949152542372747e+00 5.941300530738414798e-01
3.619872304563952703e+00 1.819848024125704684e-03 2.446735395189003626e+00 5.754757004929025310e-01
3.626184481674183946e+00 1.827760715362539709e-03 2.389473684210526194e+00 6.217064652239036038e-01
3.632455309189269510e+00 1.797655079431180383e-03 2.354014598540146164e+00 5.826399726570072879e-01
3.638754857574894697e+00 1.841922947680418475e-03 2.383211678832116931e+00 6.253349041442459733e-01
3.645110863435991444e+00 1.833895812584415653e-03 2.432330827067669343e+00 6.244223969020926690e-01
3.651399341121458253e+00 1.797724079201825547e-03 2.431372549019607643e+00 6.230235955524852098e-01
3.657684783062496781e+00 1.823089633617003442e-03 2.285714285714285587e+00 6.226998490772379657e-01
3.663989311092172851e+00 1.817352227903809700e-03 2.241803278688524692e+00 6.621357948363373325e-01
3.670338462676961733e+00 1.852037082036360515e-03 2.384297520661156966e+00 6.912816821283283009e-01
3.676667454351053799e+00 1.802731285318214709e-03 2.336244541484715942e+00 6.108388349655046179e-01
3.682957402673964431e+00 1.831301914300888494e-03 2.278761061946902533e+00 5.554110897172824801e-01
3.689264510226057059e+00 1.810576500315507495e-03 2.317972350230414591e+00 6.123832727457999558e-01
3.695607159299667099e+00 1.851070780809128090e-03 2.302325581395348930e+00 5.931828330667580085e-01
3.701906411334345837e+00 1.786914693256676148e-03 2.233830845771144435e+00 5.474671715754956258e-01
3.708163258087520564e+00 1.825159420261267002e-03 2.211055276381909351e+00 6.071050577101076984e-01
3.714507337749332283e+00 1.833043865117713490e-03 2.108808290155440357e+00 6.142683174208171115e-01
3.720870273368275249e+00 1.842023606415223082e-03 2.203208556149732544e+00 6.560344463307655749e-01
3.727157013165883104e+00 1.785929560704693081e-03 2.222857142857142865e+00 5.977645430933419268e-01
3.733414267292576749e+00 1.823616893326991065e-03 2.156976744186046346e+00 5.650612472008281761e-01
3.739747614563589284e+00 1.832601406324968355e-03 2.066265060240963791e+00 5.615026601316166488e-01
3.746091684029914770e+00 1.828992002129592063e-03 2.056603773584905870e+00 5.525650296760420410e-01
3.752406222021260618e+00 1.812401454337024109e-03 1.894039735099337651e+00 5.029625840012597049e-01
3.758712131096641595e+00 1.823143945980814458e-03 1.917241379310344884e+00 5.440850461604420651e-01
3.765000355804634324e+00 1.809969724265664184e-03 1.941605839416058465e+00 5.230068355524911672e-01
3.771324791207556704e+00 1.846593531196991230e-03 1.984962406015037484e+00 5.480991569506046268e-01
3.777640884128447674e+00 1.800430178895984180e-03 2.000000000000000000e+00 5.702659485122010263e-01
3.783890033752419058e+00 1.812352582976840126e-03 1.905982905982905873e+00 5.537116012562576239e-01
3.790205950757557840e+00 1.839564216382759279e-03 1.982142857142857206e+00 6.264014898853722535e-01
3.796547481197723339e+00 1.823144808823023381e-03 2.134615384615384581e+00 5.393193716300070939e-01
3.802839460639445335e+00 1.822115437231795494e-03 2.113402061855670144e+00 6.080726640436545649e-01
3.809162628389719529e+00 1.835235423465040759e-03 1.868131868131868156e+00 5.768969120178767396e-01
3.815477698903783743e+00 1.813833779597889004e-03 1.819277108433734913e+00 4.922095955618190355e-01
3.821777178949230969e+00 1.830898415393102585e-03 2.168831168831168998e+00 6.134215936945216496e-01
3.828076951026545771e+00 1.795694771849016581e-03 2.101449275362318847e+00 6.636668488032064772e-01
3.834316772867639944e+00 1.791896653628349866e-03 1.854838709677419262e+00 8.380891004365533803e-01
3.840583618544390898e+00 1.820001018717854217e-03 1.875000000000000000e+00 5.345224838248487931e-01
3.846911872181034475e+00 1.824281646184678762e-03 1.857142857142857206e+00 6.678803335491254600e-01
3.853313008086272973e+00 1.880829953221405115e-03 1.767441860465116310e+00 6.368866947734490580e-01
3.859656947796285653e+00 1.787945514535103963e-03 1.382352941176470562e+00 5.261336417646563790e-01
3.865825284683709118e+00 1.773175751446867720e-03 1.740740740740740700e+00 5.064738641176794731e-01
3.872064552013789740e+00 1.858490478498285668e-03 2.190476190476190688e+00 5.947617141331806856e-01
3.878243048288448236e+00 1.738115315901965106e-03 2.000000000000000000e+00 7.844645405527360671e-01
3.884441558101385361e+00 1.990091083924331716e-03 2.428571428571428381e+00 1.203735681882337261e+00
