# q qerr I(q) I(q)err
6.111313073595031620e-02 3.154100855865873791e-03 0.000000000000000000e+00 1.000000000000000000e+00
6.800242608866982619e-02 2.110752812487300123e-03 0.000000000000000000e+00 0.000000000000000000e+00
7.478812129850326285e-02 1.894856213165734514e-03 0.000000000000000000e+00 0.000000000000000000e+00
8.081736842982174818e-02 1.577734731020807597e-03 0.000000000000000000e+00 0.000000000000000000e+00
8.706192866790804508e-02 2.018057842609979804e-03 0.000000000000000000e+00 0.000000000000000000e+00
9.311361532868518698e-02 1.734318039620741251e-03 0.000000000000000000e+00 0.000000000000000000e+00
9.924832822165428892e-02 1.939409616079583844e-03 0.000000000000000000e+00 0.000000000000000000e+00
1.056867454532435108e-01 2.068262530006435406e-03 0.000000000000000000e+00 0.000000000000000000e+00
1.120935416356093062e-01 1.699923986068800717e-03 0.000000000000000000e+00 0.000000000000000000e+00
1.177168722532570266e-01 1.903764278506084144e-03 0.000000000000000000e+00 0.000000000000000000e+00
1.242406998858587575e-01 2.007415885574503726e-03 0.000000000000000000e+00 0.000000000000000000e+00
1.307844605212421796e-01 1.948859987027574741e-03 0.000000000000000000e+00 0.000000000000000000e+00
1.372938405551752672e-01 1.976444694498947011e-03 0.000000000000000000e+00 0.000000000000000000e+00
1.433626874055373979e-01 1.479129257371093872e-03 0.000000000000000000e+00 0.000000000000000000e+00
1.497414395840910573e-01 2.132896554945924294e-03 0.000000000000000000e+00 0.000000000000000000e+00
1.562016171858009728e-01 1.470810848565314282e-03 0.000000000000000000e+00 0.000000000000000000e+00
1.620883487451751925e-01 1.817360580555445800e-03 0.000000000000000000e+00 0.000000000000000000e+00
1.684939590642719198e-01 1.975568076388520972e-03 0.000000000000000000e+00 0.000000000000000000e+00
1.749358117034872373e-01 1.810730169671130639e-03 0.000000000000000000e+00 0.000000000000000000e+00
1.813634234827302405e-01 1.982290824745188643e-03 0.000000000000000000e+00 0.000000000000000000e+00
1.877608813777307539e-01 1.710969833005861022e-03 0.000000000000000000e+00 0.000000000000000000e+00
1.936838392192468117e-01 1.708352888559126238e-03 0.000000000000000000e+00 0.000000000000000000e+00
1.998200724089964908e-01 1.901042836663710675e-03 0.000000000000000000e+00 0.000000000000000000e+00
2.064988844748374130e-01 2.083185659227047067e-03 0.000000000000000000e+00 0.000000000000000000e+00
2.131062600015138364e-01 1.923054290541973939e-03 0.000000000000000000e+00 0.000000000000000000e+00
2.193208008558340527e-01 1.649587748772136844e-03 0.000000000000000000e+00 0.000000000000000000e+00
2.255197753110727010e-01 1.943898002345461392e-03 0.000000000000000000e+00 0.000000000000000000e+00
2.319084130262620835e-01 1.853433278599466881e-03 0.000000000000000000e+00 0.000000000000000000e+00
2.380456302514551703e-01 1.717913041466973250e-03 0.000000000000000000e+00 0.000000000000000000e+00
2.441826744061198484e-01 1.910984005326162374e-03 0.000000000000000000e+00 0.000000000000000000e+00
2.508567628905887248e-01 1.865639566994751813e-03 0.000000000000000000e+00 0.000000000000000000e+00
2.571616352083493928e-01 2.042758540577210586e-03 2.439024390243902524e-02 1.552185617238762139e-01
2.636090936505812721e-01 1.759536909171210452e-03 1.038961038961039030e-01 3.073288199012787492e-01
2.696276322290375727e-01 1.767913466712890637e-03 4.000000000000000222e-01 7.035623639735141266e-01
2.756934411426098519e-01 1.847457432374286813e-03 5.476190476190476719e-01 9.596449173246008879e-01
2.820483295007140123e-01 1.942127748479487680e-03 7.303370786516854007e-01 1.092664134001670062e+00
2.885873542857223528e-01 1.999902870285049771e-03 9.473684210526315264e-01 1.221234106296688049e+00
2.950059364807982032e-01 1.753155416080761590e-03 1.279069767441860517e+00 1.472939614752556414e+00
3.012776628394395750e-01 1.916275679195857595e-03 1.399999999999999911e+00 1.596707137896780759e+00
3.076468654533095481e-01 1.858480647863890167e-03 1.623655913978494514e+00 1.835877841952542333e+00
3.139397285054469910e-01 1.849733180513128640e-03 1.797872340425531901e+00 2.013141524045246822e+00
3.202097007249891103e-01 1.889977811219999311e-03 2.091836734693877542e+00 2.181240299954922079e+00
3.264390569218261762e-01 1.757358001834326191e-03 2.322580645161290480e+00 2.384188871086815098e+00
3.326951465344144543e-01 1.930481388006281569e-03 2.326923076923077094e+00 2.471397024850088275e+00
3.390239669727912464e-01 1.785238221274862988e-03 2.724489795918367374e+00 2.673157794585308000e+00
3.452290355408559885e-01 1.822729964848564038e-03 2.911764705882352811e+00 2.929092824593733990e+00
3.515217579766085620e-01 1.894166946962649433e-03 3.285714285714285587e+00 3.154308143467530634e+00
3.581115149106128270e-01 1.984833837990382030e-03 3.318584070796460228e+00 3.189931002558008100e+00
3.646365217867122976e-01 1.807385512883236643e-03 3.467289719626168054e+00 3.261360881793470945e+00
3.707522342694583029e-01 1.646676631311451595e-03 3.950000000000000178e+00 3.550633746248688993e+00
3.768404479121448269e-01 1.835047814059704218e-03 4.072072072072072224e+00 3.819692331715792477e+00
3.831651369708888866e-01 1.834489868729198949e-03 4.279279279279279535e+00 3.874868927305593402e+00
3.894643253735652899e-01 1.853753096359237081e-03 4.398230088495575174e+00 3.979458179095474168e+00
3.958807651630259494e-01 1.912159574900255954e-03 4.633333333333333748e+00 4.089111557946707443e+00
4.022473572087105209e-01 1.746533598099251966e-03 4.747747747747747660e+00 4.110725023932461752e+00
4.083991683103055381e-01 1.862831917861469243e-03 4.773109243697478909e+00 4.055960505276869910e+00
4.147868792651558945e-01 1.850918924272050396e-03 4.983471074380164900e+00 4.295827702139860982e+00
4.211381020132339281e-01 1.813003092898375071e-03 5.190082644628098762e+00 4.325418034369750586e+00
4.273404438934948479e-01 1.765577699919095717e-03 5.453781512605042181e+00 4.578860431999486558e+00
4.337195733954657406e-01 1.911235613422362228e-03 5.615384615384614975e+00 4.661119554673382126e+00
4.400834723796714920e-01 1.795304431444431784e-03 5.766129032258064946e+00 4.794136094741277887e+00
4.463380503116383125e-01 1.781136916513354146e-03 5.896825396825397192e+00 4.874256602297840857e+00
4.525475293404462862e-01 1.782735370135076804e-03 6.015748031496062964e+00 4.804840285897162389e+00
4.588781844142776345e-01 1.863542184770878652e-03 6.149253731343283569e+00 4.976934993910961502e+00
4.652813857520213814e-01 1.809454061223974295e-03 6.338345864661653728e+00 4.940330254367331975e+00
4.715886271752884884e-01 1.786725641485754782e-03 6.462686567164179330e+00 5.079793243679288750e+00
4.778700308571910971e-01 1.749120838384908864e-03 6.593984962406015171e+00 5.117175246486152851e+00
4.841075358786299798e-01 1.812598873705853009e-03 6.688405797101449224e+00 5.228329918091356276e+00
4.904685449060671165e-01 1.813034819841214708e-03 6.950000000000000178e+00 5.441638408735787635e+00
4.967988078032400945e-01 1.775169993053363985e-03 7.028368794326240732e+00 5.336157204730375803e+00
5.030461340587593089e-01 1.710738770771227935e-03 7.333333333333333037e+00 5.580764063838560496e+00
5.093789740337634209e-01 1.844995629980458740e-03 7.416107382550335636e+00 5.667295467611594084e+00
5.157895609665918979e-01 1.772173611217854692e-03 7.705479452054794898e+00 5.756497874582367835e+00
5.220653538623039047e-01 1.710912446064493482e-03 7.923076923076923350e+00 5.733033297543955520e+00
5.282420832211931483e-01 1.776221308977217429e-03 8.067567567567568432e+00 5.724173427814879922e+00
5.345849814872509764e-01 1.797460663252185451e-03 8.315789473684210620e+00 5.911161328778605117e+00
5.409400198384390901e-01 1.769240412124692928e-03 8.777777777777778567e+00 6.007197329294787558e+00
5.471612929737256215e-01 1.671871176479489780e-03 9.195945945945945610e+00 6.285178572316157286e+00
5.535187503546902255e-01 1.843477994232445120e-03 9.598765432098765871e+00 6.359846317014292261e+00
5.599303633336802921e-01 1.774845713676194252e-03 1.014649681528662484e+01 6.662843576334259055e+00
5.661980099607780703e-01 1.715649351238413218e-03 1.107792207792207861e+01 6.799609832744156535e+00
5.724333289920446877e-01 1.764199560704661452e-03 1.191249999999999964e+01 7.274393230710037628e+00
5.786575496797814466e-01 1.687338640378493104e-03 1.290909090909090828e+01 7.875507142456634746e+00
5.849918082512260975e-01 1.882166412490617838e-03 1.427906976744186096e+01 8.161482039138219235e+00
5.913559560974818163e-01 1.673563701773732749e-03 1.538216560509554220e+01 8.927325913022375659e+00
5.976003341774964728e-01 1.789272139650604403e-03 1.704733727810650734e+01 9.663776271660966088e+00
6.039710484280985670e-01 1.760471037718898532e-03 1.864285714285714235e+01 1.016682697542843350e+01
6.103455122609070527e-01 1.778153705054047679e-03 1.981286549707602163e+01 1.067155166688368340e+01
6.165941547084902163e-01 1.709282904712068618e-03 1.968263473053892199e+01 1.114462956389586168e+01
6.227886440901039267e-01 1.708031916550016484e-03 1.976190476190476275e+01 1.078144296797303880e+01
6.292222757675741684e-01 1.895555695838723603e-03 1.915508021390374438e+01 1.024399073984997344e+01
6.355837393651907474e-01 1.609918394456906487e-03 1.797575757575757649e+01 9.921473127386239099e+00
6.417201133152361514e-01 1.735489606861494215e-03 1.697752808988764173e+01 9.161131756431883488e+00
6.480234646877054416e-01 1.746502386866512820e-03 1.529213483146067354e+01 8.636251372731599929e+00
6.543745591304535036e-01 1.808595843625667669e-03 1.398913043478260931e+01 7.769773999043940726e+00
6.607410482875138991e-01 1.776914150084337417e-03 1.305978260869565233e+01 7.305225264327643409e+00
6.669765730033264672e-01 1.670208017253243388e-03 1.238068181818181834e+01 7.091077540248604372e+00
6.731673103258457580e-01 1.796482171393593615e-03 1.205851063829787151e+01 6.803634390786645447e+00
6.795850853652600776e-01 1.822834825668488831e-03 1.145026178010471263e+01 6.964655627065728716e+00
6.858902177354958551e-01 1.747430487391250960e-03 1.141397849462365599e+01 6.653698799305103329e+00
6.921278880332987216e-01 1.765781770802452586e-03 1.110582010582010604e+01 6.767878309688997618e+00
6.985070946107704293e-01 1.847715388967816497e-03 1.098989898989898961e+01 6.304147142700323059e+00
7.048037128132643714e-01 1.757666077632949074e-03 1.075661375661375629e+01 6.364402009990124398e+00
7.109847861020758275e-01 1.767854622430342420e-03 1.068750000000000000e+01 6.320410678574085672e+00
7.172345948602801835e-01 1.822657136245004524e-03 1.070707070707070763e+01 6.250542268078525865e+00
7.236608500653414211e-01 1.906739358311473767e-03 1.076585365853658516e+01 6.342088149339429215e+00
7.299519259881649402e-01 1.814756391122580772e-03 1.096428571428571352e+01 6.374260375547656565e+00
7.362298620906445601e-01 1.872001608046580190e-03 1.106372549019607909e+01 6.503104573110600306e+00
7.427109241448597299e-01 1.961252361706546793e-03 1.103271028037383239e+01 6.224688461339827228e+00
7.489749171607754663e-01 1.795506848231544564e-03 1.081538461538461604e+01 6.433952101544618607e+00
7.553119902396251417e-01 1.968290517240121971e-03 1.108675799086758040e+01 6.370034857995267252e+00
7.617428847945948434e-01 1.878647625832918257e-03 1.103864734299516925e+01 6.520398860313676437e+00
7.679897535333021219e-01 1.889655825210407886e-03 1.111961722488038262e+01 6.390456845318631451e+00
7.742716946001383382e-01 1.890740870187222538e-03 1.104225352112676006e+01 6.369551237437584668e+00
7.806130493972306406e-01 1.874127862848933099e-03 1.107547169811320842e+01 6.436140559712690390e+00
7.869955317179381238e-01 1.962138593108325030e-03 1.117857142857142883e+01 6.286335703860604696e+00
7.933337815560531636e-01 1.823456314192357453e-03 1.108095238095238066e+01 6.300682034852131963e+00
7.995722808394026826e-01 1.873920736445982161e-03 1.116289592760180938e+01 6.071705256132592154e+00
8.059029702364099990e-01 1.855844282913126459e-03 1.093607305936073004e+01 6.270916086642339238e+00
8.122482529694946551e-01 1.899897789708842157e-03 1.096035242290748890e+01 6.082256828214109845e+00
8.185971333973350861e-01 1.831057107996742058e-03 1.100896860986547132e+01 6.201761297413038498e+00
8.248840800988579414e-01 1.805078930334647752e-03 1.095515695067264517e+01 6.038927059416839604e+00
8.311527541867054225e-01 1.843524136775542745e-03 1.113100436681222760e+01 6.142841494813592540e+00
8.375116084758876811e-01 1.829773299230467044e-03 1.116956521739130359e+01 6.144476672002165962e+00
8.438261475186588090e-01 1.817550564165925373e-03 1.118103448275862100e+01 6.026370779178222392e+00
8.500843452560248314e-01 1.755513946144033992e-03 1.104424778761061887e+01 6.071331796102852785e+00
8.563647400134730692e-01 1.844487251387733453e-03 1.131120331950207536e+01 5.951732184262153780e+00
8.626696591174244366e-01 1.710203360544058351e-03 1.115350877192982537e+01 6.103917602279211430e+00
8.689830853488446083e-01 1.844123492424595270e-03 1.122764227642276502e+01 6.025852054853209516e+00
8.753179752476163422e-01 1.741457950302257533e-03 1.111914893617021249e+01 5.979320027776376278e+00
8.815756228481118617e-01 1.752464905610253906e-03 1.138589211618257302e+01 6.015366879437807235e+00
8.877944678552249780e-01 1.716242394594354789e-03 1.151476793248945185e+01 6.171498761462845373e+00
8.941407927930166144e-01 1.839522330085644050e-03 1.161660079051383399e+01 6.208316135556665394e+00
9.005003621585947471e-01 1.752218829319661820e-03 1.169387755102040849e+01 6.182838227419423127e+00
9.067627482844141662e-01 1.720498064613873055e-03 1.169262295081967196e+01 6.304967903436944354e+00
9.130278025298368405e-01 1.789374596252915357e-03 1.174603174603174516e+01 6.282847670851751332e+00
9.193563827426239898e-01 1.786117629316656989e-03 1.158333333333333393e+01 6.337978663972730686e+00
9.256709965929463824e-01 1.773964252230773864e-03 1.167843137254901897e+01 6.177539901211885010e+00
9.319487846442510159e-01 1.740175819907428248e-03 1.178400000000000070e+01 6.135835721399327980e+00
9.382375230166524194e-01 1.835219923763222079e-03 1.175954198473282375e+01 6.083267843880683756e+00
9.445114335627492475e-01 1.754301698834087597e-03 1.152964426877470316e+01 6.067003125588532164e+00
9.507739483173833772e-01 1.796477233495237351e-03 1.172796934865900376e+01 6.089817452266442110e+00
9.571000001339345920e-01 1.844157663989784944e-03 1.177358490566037652e+01 6.127016781326902084e+00
9.634651872700409347e-01 1.860525514413665987e-03 1.186466165413533780e+01 6.097883424612318137e+00
9.697902983397413967e-01 1.869026222830578836e-03 1.199248120300751808e+01 6.106195991552510804e+00
9.761731987705594138e-01 1.898719003246270758e-03 1.178228782287822796e+01 5.897005703808328114e+00
9.824546988499620603e-01 1.850375251942234242e-03 1.181132075471698073e+01 5.996973248668649781e+00
9.887603507672997338e-01 1.885371791598095068e-03 1.185661764705882426e+01 6.214683959205226316e+00
9.951547945742836854e-01 1.923480157877882840e-03 1.201067615658362975e+01 6.025739170761180041e+00
1.001497743307979915e+00 1.816985016266823736e-03 1.181273408239700373e+01 6.105946459440297680e+00
1.007730073445106012e+00 1.872875193246743668e-03 1.174820143884892154e+01 5.852541199938042560e+00
1.014110590476311025e+00 1.881534321868284657e-03 1.170921985815602895e+01 5.884185213945126058e+00
1.020442888611849064e+00 1.823625195420996601e-03 1.187455197132616469e+01 5.848899008292360868e+00
1.026691701700078063e+00 1.782759485576686145e-03 1.185144927536231840e+01 5.994792688866119157e+00
1.033057845114525142e+00 1.884320384582664851e-03 1.198979591836734748e+01 5.878289116542743109e+00
1.039437792018165441e+00 1.793463056649077922e-03 1.213074204946996382e+01 5.944470152418992015e+00
1.045681248368910410e+00 1.745618337461533540e-03 1.226241134751773032e+01 5.816595227557563419e+00
1.051944871571292683e+00 1.801987856022948175e-03 1.223793103448275943e+01 5.832968336919084784e+00
1.058324809813473877e+00 1.829265674919061668e-03 1.235353535353535293e+01 5.976449945433925492e+00
1.064596602572098316e+00 1.714864743882408334e-03 1.226408450704225395e+01 5.903406078923598699e+00
1.070868750588993112e+00 1.792957436204007347e-03 1.219528619528619551e+01 5.821956781346597332e+00
1.077195490251847465e+00 1.798916779777443367e-03 1.195986622073578509e+01 5.856556872220832766e+00
1.083505800573759448e+00 1.740543057611223946e-03 1.207508532423208258e+01 5.884097620375879245e+00
1.089676915900379850e+00 1.748165881083384946e-03 1.209183673469387799e+01 5.817698847534590989e+00
1.096052400832523421e+00 1.863573573199493825e-03 1.238977635782747555e+01 5.826796384333506218e+00
1.102364289960501065e+00 1.744372504095847640e-03 1.250847457627118686e+01 5.927310330697375562e+00
1.108625070827478076e+00 1.829094711995288541e-03 1.238762214983713328e+01 5.860278863616132483e+00
1.114924075445366869e+00 1.842999932655674591e-03 1.173701298701298690e+01 5.394030811243695211e+00
1.121282665432693726e+00 1.762017027877181303e-03 1.119847328244274820e+01 5.609723654116575808e+00
1.127553932619258736e+00 1.851826979229859085e-03 1.123420074349442466e+01 5.557900553688996936e+00
1.133905639228342421e+00 1.803927404845938115e-03 1.113725490196078383e+01 5.699443843983285518e+00
1.140144523104706709e+00 1.820967272376473748e-03 1.111811023622047223e+01 5.904614104997502722e+00
1.146455214771981312e+00 1.831860927088285957e-03 1.099203187250996017e+01 5.891102107949325095e+00
1.152869066430118439e+00 1.902391342003174283e-03 1.127027027027027017e+01 5.793869530503056531e+00
1.159252377890596986e+00 1.791659613503928782e-03 1.092531120331950234e+01 5.905753897599939073e+00
1.165575291556828930e+00 1.872439892399787795e-03 1.147410358565737099e+01 5.746315561942282990e+00
1.171828433925186763e+00 1.747387590499659572e-03 1.104329004329004249e+01 6.032599171905602020e+00
1.178029580193284076e+00 1.845903894892485285e-03 1.147736625514403208e+01 6.017157526113777521e+00
1.184400904434957269e+00 1.829516060217846983e-03 1.127615062761506337e+01 5.913267901677417449e+00
1.190737654720273042e+00 1.816225366119703435e-03 1.142616033755274252e+01 5.868238174005497854e+00
1.196977477342464180e+00 1.780548390738201196e-03 1.113537117903930174e+01 5.952482460603639502e+00
1.203312963818603976e+00 1.874247930763579166e-03 1.158677685950413228e+01 5.799068200588979316e+00
1.209645773529357093e+00 1.750259837788138012e-03 1.143805309734513287e+01 6.018066750873189541e+00
1.215952225700388523e+00 1.837678281197498587e-03 1.159745762711864359e+01 5.858629710572904159e+00
1.222254898926581568e+00 1.775628514659025698e-03 1.141947565543071086e+01 5.425159243506609386e+00
1.228537298751265050e+00 1.780223345631782141e-03 1.178623188405797073e+01 5.547611417408695011e+00
1.234759587745337228e+00 1.795376270296014523e-03 1.172401433691756267e+01 5.635102832822655117e+00
1.241110555825225781e+00 1.895169703334604900e-03 1.196979865771812079e+01 5.581217899665588789e+00
1.247523323486311897e+00 1.874537877840588536e-03 1.172972972972972983e+01 5.614925846092891248e+00
1.253854431820907944e+00 1.857283623330970761e-03 1.185234899328859015e+01 5.397412910195734881e+00
1.260138295168494293e+00 1.856490137450314505e-03 1.174418604651162745e+01 5.534862782282624849e+00
1.266501421045549414e+00 1.881588491645209797e-03 1.184887459807073995e+01 5.477151012863227031e+00
1.272807251993681055e+00 1.824447191781883651e-03 1.181311475409836120e+01 5.571049480474401960e+00
1.279100636071537789e+00 1.831925956271344968e-03 1.179299363057324790e+01 5.616552419552893305e+00
1.285385940199903265e+00 1.796864974607813087e-03 1.183653846153846168e+01 5.469173518399189859e+00
1.291734086560349049e+00 1.833790085687247952e-03 1.178834355828220914e+01 5.533551885504444101e+00
1.297999116585571544e+00 1.712347548001254965e-03 1.177346278317152084e+01 5.460631641216275867e+00
1.304332283077917598e+00 1.862331657852500611e-03 1.174926253687315558e+01 5.361128689050812746e+00
1.310629912671008812e+00 1.689758514739712848e-03 1.172756410256410220e+01 5.364164843120344806e+00
1.316859893871710430e+00 1.807323329610554348e-03 1.178208955223880672e+01 5.384575712401497682e+00
1.323169508333509325e+00 1.772103529485381237e-03 1.171124620060790278e+01 5.293018753375207552e+00
1.329416719622044551e+00 1.761213072716576004e-03 1.187613293051359520e+01 5.274288538404886317e+00
1.335676763851219473e+00 1.808340606324402439e-03 1.182738095238095255e+01 5.305493412097028738e+00
1.342102166253144047e+00 1.916040745002256648e-03 1.205633802816901401e+01 5.131765085647141511e+00
1.348432554966731090e+00 1.804515701739407276e-03 1.197583081570996910e+01 5.328423038438304893e+00
1.354697325729501189e+00 1.895450207138361931e-03 1.210764872521246538e+01 5.266285142182652201e+00
1.361035554581970564e+00 1.836151892644552735e-03 1.202616279069767380e+01 5.441761080388433314e+00
1.367445372286436589e+00 1.911657172750392099e-03 1.206575342465753486e+01 5.256304152714481148e+00
1.373833054624600258e+00 1.794265400870382644e-03 1.196811594202898554e+01 5.253188787637782298e+00
1.380048052911932777e+00 1.791287036868802413e-03 1.202279202279202330e+01 5.248209694971653683e+00
1.386332670155489666e+00 1.806335848089170130e-03 1.194101123595505598e+01 5.135167975106464056e+00
1.392624520144640332e+00 1.796075039907524609e-03 1.179722222222222250e+01 5.148892665322549966e+00
1.398923000198597277e+00 1.771229759338340285e-03 1.193539325842696641e+01 5.097765934508960761e+00
1.405184482923453881e+00 1.808998902686751115e-03 1.191847826086956452e+01 5.127047000023862822e+00
1.411475199677901360e+00 1.734371386327675756e-03 1.199719101123595522e+01 5.094333264537713291e+00
1.417706081410672780e+00 1.817237095201347432e-03 1.212365591397849407e+01 5.030133787920984645e+00
1.424046144262549829e+00 1.816956160244514703e-03 1.209756097560975618e+01 5.126208064598494651e+00
1.430457268966005335e+00 1.925855730949348329e-03 1.231876606683804631e+01 4.964343756230316984e+00
1.436865665354877475e+00 1.843763745384080412e-03 1.237365591397849407e+01 5.009516611118531415e+00
1.443084111958556903e+00 1.831535442318516687e-03 1.224731182795698992e+01 5.163846253337457171e+00
1.449466238371406979e+00 1.910439897345804971e-03 1.227088607594936676e+01 5.074205325560622093e+00
1.455780432464144347e+00 1.769262236301017126e-03 1.235945945945946001e+01 5.153207175424006081e+00
1.462109939136078340e+00 1.873282905934200038e-03 1.250626566416040042e+01 5.111351709136796373e+00
1.468414112563870999e+00 1.734923018383166060e-03 1.247466666666666590e+01 5.235260961340258312e+00
1.474680891373796765e+00 1.804015195942032307e-03 1.265989847715736083e+01 5.107247337513495467e+00
1.480924591063775386e+00 1.742163032935032654e-03 1.256657963446475179e+01 5.211610556495315016e+00
1.487138550370334267e+00 1.742602934721402272e-03 1.262210796915167066e+01 5.085912793644967955e+00
1.493462591150057195e+00 1.833511633313982111e-03 1.254207920792079278e+01 5.072451985014778231e+00
1.499809278721849770e+00 1.805357266360340307e-03 1.269017632241813587e+01 5.156390929280515678e+00
1.506175762378094918e+00 1.888906516140883814e-03 1.303667481662591676e+01 5.092178803773691698e+00
1.512543466733061504e+00 1.879653113941155348e-03 1.295098039215686292e+01 5.211688077602475211e+00
1.518927121842702510e+00 1.865813122140227640e-03 1.283823529411764675e+01 5.126861633359384385e+00
1.525176469146275027e+00 1.826629940430822378e-03 1.278163771712158869e+01 5.040669772352207367e+00
1.531416651941075235e+00 1.798854978931840659e-03 1.271039603960396036e+01 4.904995113256733319e+00
1.537728221615372926e+00 1.856986876758172280e-03 1.270921985815602895e+01 5.013915214083908722e+00
1.544096010846849332e+00 1.769518617434322075e-03 1.287347931873479290e+01 5.063176158057845377e+00
1.550405005344789089e+00 1.809055686031393537e-03 1.290070921985815566e+01 5.049806422911126802e+00
1.556696834359960313e+00 1.740139413919524446e-03 1.288349514563106801e+01 4.982320993363678063e+00
1.562969221032702194e+00 1.804120915253569534e-03 1.299528301886792470e+01 4.982276571275491506e+00
1.569251838380229191e+00 1.803338776033149233e-03 1.297136038186157592e+01 4.959171654251808725e+00
1.575556094315494926e+00 1.863019847936644557e-03 1.310955710955710884e+01 4.764613240433052788e+00
1.581892448177514066e+00 1.865480693804838323e-03 1.294212962962962976e+01 4.893896276459710926e+00
1.588269483401412163e+00 1.861295980786164313e-03 1.285253456221198221e+01 4.933991650737553414e+00
1.594574325321363339e+00 1.830133252637398044e-03 1.284259259259259345e+01 4.850577210996171118e+00
1.600916934751582588e+00 1.832077894544300927e-03 1.280637813211845177e+01 4.935425500730651116e+00
1.607201343968552854e+00 1.780442356845074459e-03 1.280324074074074048e+01 4.866047978107085115e+00
1.613445462524496721e+00 1.775524639999344866e-03 1.277981651376146743e+01 4.907315780479794221e+00
1.619730849749851931e+00 1.787630240083115185e-03 1.281038374717832973e+01 4.791565816757700880e+00
1.625979803600224649e+00 1.755895091839796123e-03 1.272413793103448221e+01 4.772435386304217708e+00
1.632226613292544926e+00 1.821174808670054370e-03 1.266890380313199138e+01 4.650098424944399511e+00
1.638606704061473573e+00 1.894452323361247963e-03 1.269848156182212584e+01 4.626104234400490789e+00
1.645050487946952522e+00 1.887301666918968484e-03 1.246086956521739175e+01 4.618195704926125522e+00
1.651415996904310735e+00 1.851783837096881687e-03 1.230701754385964897e+01 4.680428774359224775e+00
1.657788871265904573e+00 1.852242853945953917e-03 1.226997840172786169e+01 4.573735394668603682e+00
1.664006124760511351e+00 1.741113674427757210e-03 1.228798185941043108e+01 4.632703007512428250e+00
1.670281873961185770e+00 1.842366346193471905e-03 1.229386892177589807e+01 4.513649978513011973e+00
1.676541801276667298e+00 1.721555322686186195e-03 1.229372197309417025e+01 4.639665246037309565e+00
1.682793682471841024e+00 1.824670227224382997e-03 1.231223628691983052e+01 4.553966432182930291e+00
1.689107465299970467e+00 1.791603935857043455e-03 1.218872017353579196e+01 4.603302140495880934e+00
1.695415952935033443e+00 1.877357617877282179e-03 1.228183716075156617e+01 4.513314522156266939e+00
1.701806617780016628e+00 1.875253898477295287e-03 1.216283924843423847e+01 4.428381933717773222e+00
1.708145235544118012e+00 1.851238026496159058e-03 1.205473684210526386e+01 4.520976042485884250e+00
1.714469347376187613e+00 1.845626368464784459e-03 1.217598343685300222e+01 4.398902882065879538e+00
1.720739519194126599e+00 1.771881702320935673e-03 1.200213675213675302e+01 4.533116510651950648e+00
1.726990948287859817e+00 1.820993782645452704e-03 1.208367346938775455e+01 4.464292128275275218e+00
1.733361150263370787e+00 1.784216608021570085e-03 1.244834710743801587e+01 6.741103262205814239e+00
1.739571674833123582e+00 1.760427731239605715e-03 1.410272536687631018e+01 2.286502502415235938e+01
1.745887440247851030e+00 1.853392121839796862e-03 1.519839679358717355e+01 3.590955452858387531e+01
1.752250177420427102e+00 1.860925844240075020e-03 1.401214574898785337e+01 2.219347841945399225e+01
1.758607387389414800e+00 1.864192030273802104e-03 1.240000000000000036e+01 6.211988409519126009e+00
1.764972322429467777e+00 1.851098948525789619e-03 1.190600000000000058e+01 4.272350172914201494e+00
1.771273520234028620e+00 1.808016239517707931e-03 1.179435483870967794e+01 4.240458584734078329e+00
1.777586992161852564e+00 1.807004964737956481e-03 1.180000000000000071e+01 4.170286216641834187e+00
1.783840233931820451e+00 1.746107465683986813e-03 1.168228105906313630e+01 4.214251382803370305e+00
1.790071520275328565e+00 1.795583184790444783e-03 1.178543307086614256e+01 4.139163262707215907e+00
1.796393698957722052e+00 1.819993601147859141e-03 1.173122529644268752e+01 4.213468397881479532e+00
1.802712928873270393e+00 1.883216042231023422e-03 1.170498084291187801e+01 4.086298953720690186e+00
1.809114577024696358e+00 1.850157529878445435e-03 1.163178294573643434e+01 4.110789014646375250e+00
1.815345782948464493e+00 1.803540499391122600e-03 1.146640316205533594e+01 4.099405928453430548e+00
1.821700705453981772e+00 1.863872113208649628e-03 1.155970149253731272e+01 4.018531989915770986e+00
1.828034416566336029e+00 1.759461126105644731e-03 1.145472440944881853e+01 4.055086575827239415e+00
1.834289862490237510e+00 1.817049905439401892e-03 1.151600753295668511e+01 3.986826221582473906e+00
1.840620947190598100e+00 1.780340576699249600e-03 1.155000000000000071e+01 3.929241950770187675e+00
1.846876290479544158e+00 1.833628160635640113e-03 1.160491493383742956e+01 3.952466181402942258e+00
1.853225331533147280e+00 1.864396810776891523e-03 1.152222222222222214e+01 3.953024054689613376e+00
1.859586416204100923e+00 1.843230203276794224e-03 1.140934579439252339e+01 3.992226703249124320e+00
1.865884580336470755e+00 1.827085395033201023e-03 1.131843575418994341e+01 4.019937722862639617e+00
1.872200528994375501e+00 1.799198018262535481e-03 1.125000000000000000e+01 3.905006283487143737e+00
1.878453452628845000e+00 1.760356359008985331e-03 1.119585687382297579e+01 3.999252929764062436e+00
1.884712324747962020e+00 1.805687576808031941e-03 1.125000000000000000e+01 3.964256357395833597e+00
1.891113706724730337e+00 1.861939656346446982e-03 1.128956834532374032e+01 3.916316418410987321e+00
1.897400945427566432e+00 1.833350088909791505e-03 1.132169117647058876e+01 3.936543005853960331e+00
1.903772875545957088e+00 1.875180743362649160e-03 1.128169014084507005e+01 3.920919711831604815e+00
1.910018917854334752e+00 1.739883276586547947e-03 1.116068052930056709e+01 3.885531991549048936e+00
1.916236012056648175e+00 1.833205283437960029e-03 1.121929824561403422e+01 3.745595546197021175e+00
1.922638163561010805e+00 1.793373418488206777e-03 1.111250000000000071e+01 3.810002109110777191e+00
1.928888348891847349e+00 1.792288115248428593e-03 1.102338129496402885e+01 3.782703779800924870e+00
1.935240631371640818e+00 1.865766417879262265e-03 1.112110726643598646e+01 3.670381686924291120e+00
1.941608872090050619e+00 1.856644915843207438e-03 1.104569420035149463e+01 3.662822685627384445e+00
1.947917338414854704e+00 1.837601359788319485e-03 1.103502626970227674e+01 3.714961114007971243e+00
1.954236834815996637e+00 1.805754229573221887e-03 1.100174825174825166e+01 3.750990545166712931e+00
1.960488135501994522e+00 1.772905664188001006e-03 1.095044247787610558e+01 3.789030004495958170e+00
1.966755922696415082e+00 1.810201296061439468e-03 1.101204819277108449e+01 3.688360935021644860e+00
1.973091583736556354e+00 1.814240900008777741e-03 1.102068965517241317e+01 3.694070835017383203e+00
1.979420480567132490e+00 1.865397302840512408e-03 1.103565365025466960e+01 3.617371530002059909e+00
1.985762243830389018e+00 1.849873766110382307e-03 1.092203389830508442e+01 3.690881019536319307e+00
1.992143605840229093e+00 1.840662096304069391e-03 1.084254606365159113e+01 3.593228760418917034e+00
1.998372952698491245e+00 1.738412627792555948e-03 1.070123022847100103e+01 3.559662305291434237e+00
2.004614638405731508e+00 1.821010887715033720e-03 1.061754966887417240e+01 3.474426800879091282e+00
2.010981699228176822e+00 1.807963355431743604e-03 1.061952861952861937e+01 3.505799187126894090e+00
2.017216781415232862e+00 1.822968187424302972e-03 1.069645868465430105e+01 3.458269416295824517e+00
2.023555507756473748e+00 1.866836436713831520e-03 1.062601626016260248e+01 3.460017800625664108e+00
2.029945947492921121e+00 1.842053164818473936e-03 1.062500000000000000e+01 3.488497310711605515e+00
2.036236367431154548e+00 1.802040352124230577e-03 1.065619834710743774e+01 3.487201026503730983e+00
2.042538823796997693e+00 1.786279422623429517e-03 1.054679802955664947e+01 3.407097550390532970e+00
2.048720173306640469e+00 1.747373060808409071e-03 1.043050847457627128e+01 3.417076100681867068e+00
2.055017041239767028e+00 1.892889576395914968e-03 1.047261345852895076e+01 3.318686918384722073e+00
2.061465280497128294e+00 1.850343878148330047e-03 1.045993589743589780e+01 3.412706820381782524e+00
2.067778354784032935e+00 1.826644103880053095e-03 1.045249597423510401e+01 3.423961489583144058e+00
2.074107962816127415e+00 1.810449409964311413e-03 1.042539682539682566e+01 3.262684416151110156e+00
2.080392027050733006e+00 1.757304311173108879e-03 1.035016286644951222e+01 3.343052776639014567e+00
2.086560915145909245e+00 1.789004268885935290e-03 1.024149108589951318e+01 3.273403286339653828e+00
2.092907509218693285e+00 1.897916204239676529e-03 1.031859756097560954e+01 3.184550095372117973e+00
2.099341076602548206e+00 1.841856996552926774e-03 1.018125000000000036e+01 3.316897140495164820e+00
2.105598503643897335e+00 1.780460926307301031e-03 1.005591054313098986e+01 3.290294334487658290e+00
2.111872942412509335e+00 1.813036870717739954e-03 1.004475308641975317e+01 3.221682644856107558e+00
2.118179840511383194e+00 1.773074262998883873e-03 1.005039370078740113e+01 3.243998163847842342e+00
2.124489700938873238e+00 1.854176769044688739e-03 1.013149847094801181e+01 3.245515049377071470e+00
2.130866139955553962e+00 1.876679961187130126e-03 1.004084720121028695e+01 3.269058623760092708e+00
2.137196345481136905e+00 1.803165093871285981e-03 9.995356037151703177e+00 3.296254893392115637e+00
2.143477781291089013e+00 1.808033309626025679e-03 9.839694656488550351e+00 3.160347752047941938e+00
2.149749346762158453e+00 1.787076492040512573e-03 9.758832565284178528e+00 3.102175923656362411e+00
2.156014428448592479e+00 1.811767013668930289e-03 9.847792998477929771e+00 3.083472684212811732e+00
2.162388958755252943e+00 1.899773100682969557e-03 9.924087591240875028e+00 3.086106526427915497e+00
2.168776559916051561e+00 1.828625003914755194e-03 9.830330330330330213e+00 3.176409303372133230e+00
2.175079146577416189e+00 1.799027495536281414e-03 9.794029850746268195e+00 3.116008293546941754e+00
2.181358965593887422e+00 1.775037425494343461e-03 9.716867469879517216e+00 3.059275829689000581e+00
2.187625576602315824e+00 1.830837683859201127e-03 9.692307692307691624e+00 3.038630060490294049e+00
2.193923842198696850e+00 1.837507381709080519e-03 9.682819383259911206e+00 2.965581267770691198e+00
2.200310743338333541e+00 1.859271066102410235e-03 9.523672883787661192e+00 3.048950961560219497e+00
2.206637920896229677e+00 1.789161753318371274e-03 9.481481481481480955e+00 2.963981306483761458e+00
2.212855268310565560e+00 1.778695396750237757e-03 9.480117820324005962e+00 2.921899867237083281e+00
2.219155297956861617e+00 1.826812665150635666e-03 9.494964028776978537e+00 2.919847078416506481e+00
2.225534449623195243e+00 1.883537061579874895e-03 9.265162200282087923e+00 2.860019299388277592e+00
2.231816049321749151e+00 1.789850136339156059e-03 9.118942731277533298e+00 2.870807185015336049e+00
2.238124350048766420e+00 1.838516226422660244e-03 9.250000000000000000e+00 2.894683047266846998e+00
2.244461256680506001e+00 1.769483755913013904e-03 9.277858176555715986e+00 2.899156294325297090e+00
2.250672411056880762e+00 1.815340560525242463e-03 9.190817790530847020e+00 2.931257375514193519e+00
2.256976265699253581e+00 1.875232856265233962e-03 9.142265193370166187e+00 2.882479209883251681e+00
2.263404067221236105e+00 1.844596500685106652e-03 9.006887052341598476e+00 2.851700099899483476e+00
2.269740131332425914e+00 1.784620609829179342e-03 9.060820367751061255e+00 2.915947844364329189e+00
2.275928662030326066e+00 1.770462641505800294e-03 9.145299145299144783e+00 2.884857012144559807e+00
2.282234771450446509e+00 1.859120215862977580e-03 9.154471544715446996e+00 2.749117797752135051e+00
2.288651494096741512e+00 1.861574731480084791e-03 9.013568521031206870e+00 2.756730479262109235e+00
2.294929189507614264e+00 1.787386468760323059e-03 8.896067415730337657e+00 2.731733268812657656e+00
2.301123790424945526e+00 1.773889529887621910e-03 8.875000000000000000e+00 2.699183261243625953e+00
2.307427473574251042e+00 1.823767960867003161e-03 8.757780784844383604e+00 2.651728708560723291e+00
2.313824548022820782e+00 1.807223345639351721e-03 8.723625557206537096e+00 2.712394636568181472e+00
2.320154992066300714e+00 1.861695907969135875e-03 8.491124260355029207e+00 2.785592123062666126e+00
2.326479049872378635e+00 1.797363522119922990e-03 8.394453004622496550e+00 2.752618723397123102e+00
2.332811122143054305e+00 1.834923033436536115e-03 8.337386018237081586e+00 2.733179475546111181e+00
2.339146829363451641e+00 1.809933127175767861e-03 8.298273155416012514e+00 2.646530376836853105e+00
2.345346999874724947e+00 1.788822558822959720e-03 8.065916398713826041e+00 2.707724850318894205e+00
2.351591514044208964e+00 1.821961582186779451e-03 8.048818897637795899e+00 2.648884903725049700e+00
2.357940827546205931e+00 1.821480796874143165e-03 7.992088607594936889e+00 2.626831046630228261e+00
2.364269371024037891e+00 1.822839816105960298e-03 8.012820512820512775e+00 2.625659336124053667e+00
2.370575565839220911e+00 1.828742917233826173e-03 7.897106109324758982e+00 2.708600063506815037e+00
2.376891771469677561e+00 1.815523241845057745e-03 7.826860841423948223e+00 2.665341793923725611e+00
2.383240749019818416e+00 1.833462819707767054e-03 7.742765273311897012e+00 2.561960541288196502e+00
2.389601619010945921e+00 1.828185711102788165e-03 7.745928338762214871e+00 2.568954827837289123e+00
2.395961259100775731e+00 1.812604844355751544e-03 7.597774244833068735e+00 2.599631457978107463e+00
2.402160007896914973e+00 1.807533258736503850e-03 7.647761194029850884e+00 2.616970848589219578e+00
2.408453972146052724e+00 1.793232887210479852e-03 7.612573099415204325e+00 2.533386554278347358e+00
2.414771780432101167e+00 1.830638750947721858e-03 7.614060258249641500e+00 2.459075735237095106e+00
2.421058800843912895e+00 1.849123668637423033e-03 7.656294200848655862e+00 2.441141878393895848e+00
2.427397847212681370e+00 1.833909450969152099e-03 7.593055555555555891e+00 2.493145696296741320e+00
2.433701938443864954e+00 1.777285794113256248e-03 7.520393811533051753e+00 2.465222146180769069e+00
2.440001432560962691e+00 1.835928632076300280e-03 7.621067031463748087e+00 2.406573486009981444e+00
2.446276920633820851e+00 1.825543246774167941e-03 7.482806052269601160e+00 2.327107727144449356e+00
2.452612917458465880e+00 1.850886418197054181e-03 7.429708222811671092e+00 2.368057840590414020e+00
2.458937188373468086e+00 1.764090576915684772e-03 7.387671232876712679e+00 2.296714959660823840e+00
2.465235494564519847e+00 1.842465198645606636e-03 7.359313077939233949e+00 2.270838088026603252e+00
2.471581205305689810e+00 1.856761058240425245e-03 7.338157894736841769e+00 2.359591729557022344e+00
2.477865992864338285e+00 1.798850075022648308e-03 7.191744340878828190e+00 2.365863689580517182e+00
2.484122936716935737e+00 1.780971833254360159e-03 7.183619550858652225e+00 2.314922158456168777e+00
2.490467721662181333e+00 1.849468727863495983e-03 7.343550446998722947e+00 2.286594974526072743e+00
2.496849546734450254e+00 1.852734310658727887e-03 7.282247765006385265e+00 2.324808041265737923e+00
2.503105859710241798e+00 1.772860352036017325e-03 7.142480211081793762e+00 2.269958276502818784e+00
2.509322203788900918e+00 1.804578376445024500e-03 7.049999999999999822e+00 2.254937602184059475e+00
2.515643032193938478e+00 1.830400595634155535e-03 7.093198992443324968e+00 2.161081358189668400e+00
2.522012436559997628e+00 1.844427975373299751e-03 7.063275434243176498e+00 2.228519250530474505e+00
2.528376527697731913e+00 1.805263014170996501e-03 7.074120603015074948e+00 2.265566200162334010e+00
2.534662305746367750e+00 1.817191430107880853e-03 7.173803526448362611e+00 2.244273125099986999e+00
2.540923642722284104e+00 1.847774197163838152e-03 7.258663366336633338e+00 2.220014165674295992e+00
2.547222087144660030e+00 1.810867478977307979e-03 7.143564356435643248e+00 2.263160110750770837e+00
2.553540685742163419e+00 1.807658101810726481e-03 7.068543451652386622e+00 2.172834988014432867e+00
2.559925401613222018e+00 1.856915584780679824e-03 7.116167664670658866e+00 2.118876638365885245e+00
2.566280305514876403e+00 1.838802799104265022e-03 7.060532687651331685e+00 2.196197985421253218e+00
2.572544852388987113e+00 1.785952156998167010e-03 6.944785276073619507e+00 2.222434447734685126e+00
2.578799894204640619e+00 1.806472379669163885e-03 7.009673518742442155e+00 2.199519647836733593e+00
2.585123793491197919e+00 1.855120447360665906e-03 7.045828437132785282e+00 2.177294032963844383e+00
2.591472256141813091e+00 1.805120360344933915e-03 6.967818831942788727e+00 2.230757720751885387e+00
2.597744265483155957e+00 1.788819714346394623e-03 6.924460431654676285e+00 2.179357447057606922e+00
2.604038454996993934e+00 1.850630787333012181e-03 6.963869463869463594e+00 2.192603539866419649e+00
2.610374414453144443e+00 1.837105816396599096e-03 6.938300349243306187e+00 2.245852008549612755e+00
2.616634120485421100e+00 1.761050173804210722e-03 6.984486873508353177e+00 2.133879123763077867e+00
2.622940397920966227e+00 1.848634675493098997e-03 6.945392491467576868e+00 2.049535653751264341e+00
2.629323187355575353e+00 1.839581463337864892e-03 6.942922374429223886e+00 2.074549255410235826e+00
2.635681273538560632e+00 1.815290224604702678e-03 6.928980526918671501e+00 2.126181572505552175e+00
2.641934789831782204e+00 1.778405014700361417e-03 6.928403755868544955e+00 2.079285560554023249e+00
2.648176773767660031e+00 1.853093332118325998e-03 6.931228861330327007e+00 2.065373566697819463e+00
2.654514065851063087e+00 1.823524830511773481e-03 6.763841807909604320e+00 2.088550109271741562e+00
2.660817448321032508e+00 1.798052776896779401e-03 6.700796359499431532e+00 2.048615681469222682e+00
2.667123571907564994e+00 1.844852426740933296e-03 6.763333333333333641e+00 2.021372837491427266e+00
2.673472329675100401e+00 1.839448802019330543e-03 6.708748615725359521e+00 2.090189507098112465e+00
2.679761377760365715e+00 1.786299887381436651e-03 6.769230769230769162e+00 2.062839799978637423e+00
2.686129035698236578e+00 1.877272974428747035e-03 6.671261930010604857e+00 2.317063464117444571e+00
2.692300573720700196e+00 1.798376592015874225e-03 6.753086419753086211e+00 2.053283510580289128e+00
2.698561328278970439e+00 1.798779619418457414e-03 6.887115165336373579e+00 1.573262744456318751e+00
2.704947056964875252e+00 1.860594623228957294e-03 6.925842696629213258e+00 1.312015115644188157e+00
2.711339925705444909e+00 1.826229981736538378e-03 6.989583333333333037e+00 1.168597525869849996e+00
2.717643416720191052e+00 1.774618570520191145e-03 6.989260143198090525e+00 1.218342609008645772e+00
2.723934694222051256e+00 1.823763048442502126e-03 6.927981109799291382e+00 1.233885421560295237e+00
2.730274673678132036e+00 1.841398355898408350e-03 6.903187721369539176e+00 1.201614705093385638e+00
2.736591263199737778e+00 1.788312012670147501e-03 6.941463414634146289e+00 1.185343269884231887e+00
2.742885231028380222e+00 1.844652457607765493e-03 7.022781774580336034e+00 1.138802185340015871e+00
2.749161241756704843e+00 1.804773587711254630e-03 6.937346437346437078e+00 1.144768044454612888e+00
2.755398232824302962e+00 1.776157869081165970e-03 6.866171003717472132e+00 1.132166087122048248e+00
2.761751565609168679e+00 1.857903093933079139e-03 6.931899641577061288e+00 1.138051626436276109e+00
2.768124311574730267e+00 1.813883183384283311e-03 6.830674846625766961e+00 1.123897580470617497e+00
2.774423663616722546e+00 1.776295681999270643e-03 6.795255930087391150e+00 1.111295556237801074e+00
2.780754869867226198e+00 1.842436817654598789e-03 6.689403166869671402e+00 1.027328886753122505e+00
2.787077464795406190e+00 1.805278297034774168e-03 6.607499999999999929e+00 1.081296964297967289e+00
2.793346642012575654e+00 1.793644434711254678e-03 6.569987389659520893e+00 1.035885550738568472e+00
2.799634253246212179e+00 1.838111547031318375e-03 6.627791563275434505e+00 1.054921857175582733e+00
2.805924842988945844e+00 1.808245895551135627e-03 6.540404040404040664e+00 1.056035727622170795e+00
2.812167973206011862e+00 1.789098639402584082e-03 6.560102301790281309e+00 1.009694247431479397e+00
2.818496662748549042e+00 1.874446068014908040e-03 6.657701711491442964e+00 1.009014492281746112e+00
2.824858807967614460e+00 1.791571154666717633e-03 6.672611464968152717e+00 1.018012149366130492e+00
2.831150482550185643e+00 1.815112775054883139e-03 6.592405063291138845e+00 1.051428705783525430e+00
2.837475400148095517e+00 1.850316795954077458e-03 6.529265255292652448e+00 1.040039952626065078e+00
2.843805018276897911e+00 1.786824753329564535e-03 6.486521181001283942e+00 9.687644113510127664e-01
2.850131561922547352e+00 1.845583173970813699e-03 6.410736579275905456e+00 9.806354802196107778e-01
2.856484494638581229e+00 1.841115527677602507e-03 6.283935242839352675e+00 1.039414230497031522e+00
2.862782859862781137e+00 1.780809355167121575e-03 6.243622448979591510e+00 1.013122909101494162e+00
2.869068523143336158e+00 1.847699945098150954e-03 6.258895705521472230e+00 9.545704727961914493e-01
2.875378514069953706e+00 1.802909528894259443e-03 6.159800249687890528e+00 9.802706499625877257e-01
2.881671995666307051e+00 1.819305449905813353e-03 6.161490683229813747e+00 9.926235404210175250e-01
2.887980092673573917e+00 1.848812746508326317e-03 6.095588235294117752e+00 1.011356898832755258e+00
2.894292086458025270e+00 1.795011172749967111e-03 6.002512562814070307e+00 9.911654270683379897e-01
2.900588101801901963e+00 1.834444505730529681e-03 6.044499381953028383e+00 9.758787499101176932e-01
2.906894294921833044e+00 1.834235081131648307e-03 5.954151177199504374e+00 9.889461833554005210e-01
2.913143215321425394e+00 1.775388414920497622e-03 5.845070422535211030e+00 9.440823112602195755e-01
2.919469846096636179e+00 1.902110692867622259e-03 5.896882494004795916e+00 9.259312358114630825e-01
2.925831071463227850e+00 1.799019204260941503e-03 5.795685279187817507e+00 9.676893138595162869e-01
2.932125236913744715e+00 1.849572311535908030e-03 5.725587144622991786e+00 9.607925326480486472e-01
2.938426190430696305e+00 1.829943172517629413e-03 5.760299625468165097e+00 9.306393891048784228e-01
2.944698497868602605e+00 1.792371922793937686e-03 5.723350253807106824e+00 9.119996059196853189e-01
2.951032364443879619e+00 1.872648010744969562e-03 5.610436893203883280e+00 8.796241747752772122e-01
2.957349976869245278e+00 1.772646084934545842e-03 5.528132992327365436e+00 8.820526565647009987e-01
2.963641534615172990e+00 1.843499637433317897e-03 5.561728395061728669e+00 9.142056584695528176e-01
2.969974563050315375e+00 1.835483252247156055e-03 5.560248447204968691e+00 9.561102607727764990e-01
2.976261971728969780e+00 1.784595762971840369e-03 5.497448979591836427e+00 8.903481511628210665e-01
2.982555079221103078e+00 1.856376802478345786e-03 5.478580171358629514e+00 9.564275463259265253e-01
2.988860230475899549e+00 1.767956570045068222e-03 5.332906530089628561e+00 9.350051241629616650e-01
2.995178874680174186e+00 1.856934622757372335e-03 5.343520782396088187e+00 8.871634014606967211e-01
3.001496400543723020e+00 1.797819739674591305e-03 5.313054499366286265e+00 9.027409277899655082e-01
3.007822553902104179e+00 1.849516356328991537e-03 5.220297029702970271e+00 8.773888365334259198e-01
3.014155913686516808e+00 1.844070628166239031e-03 5.101863354037266873e+00 8.508301158959433730e-01
3.020427983220980828e+00 1.780401570183770890e-03 5.126923076923077360e+00 8.484990809277938029e-01
3.026726854870708916e+00 1.864734463497724846e-03 6.420537897310513387e+00 1.787547785198207606e+01
3.033042693621903041e+00 1.790509691971886499e-03 1.345025510204081698e+01 1.034046410149156259e+02
3.039417687211595442e+00 1.892848977299335135e-03 1.521256038647342912e+01 1.363261921960055076e+02
3.045771113053035606e+00 1.809002971513908259e-03 7.775665399239543696e+00 4.139899933951468824e+01
3.052089874155329063e+00 1.844438578281415919e-03 5.217121588089329798e+00 2.077356607812059330e+00
3.058386304167925118e+00 1.824217551217444024e-03 5.041353383458647031e+00 8.515625411944615086e-01
3.064635661305841197e+00 1.781811879387494579e-03 5.011538461538461497e+00 7.761737945646149939e-01
3.070942258104439215e+00 1.879278577764203085e-03 4.923636363636363811e+00 7.508481888869575904e-01
3.077306102136554866e+00 1.789896323379901438e-03 4.935196950444726838e+00 8.086494312727530165e-01
3.083610248093582751e+00 1.842323938384468965e-03 4.956949569495694874e+00 8.287946645238652987e-01
3.089899276602742884e+00 1.781295098450355954e-03 4.899363057324841009e+00 8.354784620916873017e-01
3.096219282790054539e+00 1.849962857272845727e-03 4.901960784313725839e+00 8.394813579846104323e-01
3.102516781183005889e+00 1.793151767743564459e-03 4.869455006337135572e+00 8.337185325134325309e-01
3.108846425703184035e+00 1.844538984569745127e-03 4.862238622386223952e+00 8.190782960242618538e-01
3.115155056293756886e+00 1.812510444856532069e-03 4.816813048933500596e+00 8.633565833152929692e-01
3.121484332076036150e+00 1.832521331068808152e-03 4.755583126550868123e+00 7.777978864589372154e-01
3.127777573742708483e+00 1.818133687887086257e-03 4.778054862842893158e+00 7.550922888292991297e-01
3.134074710556275623e+00 1.800750836428910992e-03 4.744010088272383463e+00 7.970453461015901686e-01
3.140350968701055567e+00 1.840082388152106639e-03 4.681034482758620996e+00 8.689137133670933322e-01
3.146669598331559570e+00 1.795769837056059460e-03 4.636363636363636687e+00 8.195135066071090879e-01
3.152959210157879166e+00 1.842768641532451131e-03 4.544785276073620039e+00 7.931146357229975630e-01
3.159264892205651432e+00 1.791857333635609589e-03 4.426582278481012267e+00 7.905040488053775016e-01
3.165581888857809112e+00 1.858342078644047027e-03 4.481796116504854766e+00 8.405736150166940313e-01
3.171905560319084216e+00 1.782720971754531017e-03 4.435994930291507821e+00 8.168486687679350489e-01
3.178180461481988406e+00 1.828434529921516482e-03 4.453316953316953430e+00 7.518849051149748552e-01
3.184506679420991304e+00 1.810619157308176325e-03 4.424657534246575707e+00 7.671788807466717319e-01
3.190846230582273346e+00 1.831490456789015321e-03 4.391198044009779977e+00 7.966984317483141176e-01
3.197132365687451294e+00 1.780884113596707067e-03 4.273417721518987022e+00 8.060021593348429825e-01
3.203454230992797136e+00 1.862619862555806765e-03 4.261761158021712959e+00 7.969026211124894399e-01
3.209790152929830498e+00 1.796864404628749357e-03 4.105660377358490543e+00 7.466741256471941535e-01
3.216105270782768422e+00 1.849581865447865814e-03 4.154126213592233441e+00 7.628988667780817190e-01
3.222383723154825574e+00 1.773184836801974633e-03 4.126903553299491989e+00 8.056246970939386909e-01
3.228652903688512765e+00 1.829814433570467642e-03 4.131546894031668415e+00 7.402837806747499805e-01
3.234977992221026444e+00 1.801123950508762587e-03 4.101990049751243816e+00 7.852328028611914590e-01
3.241301441286830176e+00 1.830570155328411054e-03 4.113001215066828919e+00 7.938125608673800571e-01
3.247581817024004280e+00 1.774748969754167847e-03 4.077117572692793956e+00 7.628983141431245896e-01
3.253885986942128827e+00 1.868811343678552150e-03 4.046706586826346985e+00 7.496307671557951302e-01
3.260235987169183947e+00 1.804603356501592029e-03 4.078750000000000320e+00 7.001049028538499641e-01
3.266546856392692710e+00 1.857627301288636550e-03 4.102163461538461675e+00 7.390370791536150508e-01
3.272886904023045052e+00 1.792569475559808913e-03 3.953749999999999876e+00 7.443474491123087677e-01
3.279153478698136670e+00 1.837211362056317054e-03 3.995151515151515120e+00 7.151823311285719909e-01
3.285516195699416553e+00 1.819318898053023329e-03 3.932432432432432456e+00 7.608480140680679016e-01
3.291677990232397821e+00 1.824817096246810931e-03 3.855832241153342110e+00 7.831761281247734408e-01
3.298068987764390059e+00 1.863784166448585874e-03 3.801369863013698502e+00 7.745966692414832933e-01
3.304430978840338096e+00 1.814787339162488022e-03 3.827034883720930036e+00 7.684212390668276882e-01
3.310737564052387061e+00 1.817945227602999880e-03 3.834821428571428381e+00 7.201397020552274819e-01
3.317033906120231190e+00 1.800198345421728579e-03 3.795069337442218860e+00 7.667385264725400384e-01
3.323313479518194669e+00 1.810036704891648416e-03 3.705329153605015691e+00 7.597920954197269205e-01
3.329645772824664451e+00 1.853775369266378323e-03 3.719188767550702046e+00 7.630029012675587641e-01
3.335990548707715053e+00 1.826590486813650920e-03 3.690208667736757597e+00 7.900875477638608091e-01
3.342268739174953929e+00 1.807641793864574143e-03 3.660685154975530153e+00 7.610879109144407240e-01
3.348554594221377023e+00 1.807536448754866812e-03 3.541118421052631415e+00 6.936188921807325825e-01
3.354810866618635590e+00 1.798386852034845364e-03 3.469011725293132287e+00 6.898956402074465366e-01
3.361143554435736203e+00 1.860575678898459748e-03 3.409836065573770281e+00 7.000595052835986154e-01
3.367505271257411170e+00 1.829077091643749146e-03 3.474662162162162282e+00 7.060245030998255622e-01
3.373804785089639324e+00 1.803149868685275390e-03 3.440207972270363790e+00 7.182051852142455894e-01
3.380079784639911100e+00 1.805631642174917659e-03 3.479789103690685614e+00 6.700960818184390488e-01
3.386416571036835244e+00 1.843579116849991192e-03 3.373239436619718479e+00 6.999075377480574733e-01
3.392732849186819166e+00 1.821713749179523084e-03 3.279491833030852899e+00 6.547851915624225416e-01
3.399077842768783331e+00 1.840157085703132342e-03 3.369565217391304213e+00 6.675423517877880908e-01
3.405368445234043140e+00 1.771416845865005909e-03 3.250000000000000000e+00 6.201144932452590242e-01
3.411642977450664915e+00 1.840004348347408980e-03 3.238721804511278002e+00 6.687451111922754210e-01
3.417946432239648225e+00 1.816648589106147462e-03 3.233009708737863974e+00 7.040408260726614964e-01
3.424268333461439884e+00 1.838339958730071926e-03 3.214700193423597696e+00 6.675440404098152980e-01
3.430601598134079389e+00 1.799761940178920376e-03 3.166332665330661378e+00 6.969166582474964899e-01
3.436922606236269218e+00 1.844213366763177700e-03 3.112000000000000099e+00 7.082937243827588381e-01
3.443269856433799347e+00 1.834668830692703879e-03 3.122699386503067664e+00 7.509513205807962777e-01
3.449516618902171317e+00 1.769622948488585408e-03 3.185897435897435681e+00 6.504646933808843068e-01
3.455771942280530862e+00 1.817195070858158281e-03 3.344608879492600551e+00 6.697532938903342226e-01
3.462154010515302804e+00 1.866018191136946868e-03 3.286919831223628741e+00 6.816860191172605665e-01
3.468478914699885340e+00 1.799468636805881495e-03 3.097560975609756184e+00 6.804278001661778763e-01
3.474737530089159865e+00 1.798535080277152308e-03 2.948430493273542563e+00 6.540017070481500827e-01
3.481027808853469629e+00 1.828779808500339806e-03 2.884615384615384581e+00 6.892845001680690808e-01
3.487370903609774420e+00 1.855504762412056021e-03 2.938914027149321484e+00 6.765122038077826527e-01
3.493710577164840458e+00 1.791815171782784382e-03 3.082742316784869985e+00 6.827609802102536651e-01
3.499981309375833849e+00 1.817721919481020843e-03 2.976133651551312820e+00 7.291042501306853607e-01
3.506294281862427642e+00 1.840208171226962808e-03 2.916067146282973699e+00 6.440623792461105390e-01
3.512643170548069183e+00 1.819719049123772565e-03 2.938574938574938678e+00 6.159289111532821881e-01
3.518887929185086527e+00 1.780316295825717758e-03 2.874358974358974361e+00 6.712368008881335335e-01
3.525201780775713889e+00 1.871585280235478531e-03 2.895781637717121715e+00 6.766554196029237467e-01
3.531587235286628879e+00 1.812415240060859375e-03 2.908854166666666519e+00 6.628512237234429616e-01
3.537791204901774123e+00 1.765649031450039182e-03 2.795640326975477041e+00 6.855230602077999613e-01
3.544104483213670331e+00 1.881636984785636617e-03 2.747395833333333481e+00 7.203239861099155483e-01
3.550526160049383151e+00 1.823753900979235669e-03 2.688524590163934302e+00 6.166637007804590676e-01
3.556826252644191833e+00 1.805941154371571225e-03 2.715492957746478808e+00 6.564528703251605313e-01
3.563110991539715666e+00 1.831382697511484874e-03 2.650568181818181657e+00 6.045999206496674994e-01
3.569418747584309326e+00 1.819035597463529485e-03 2.627906976744185830e+00 6.356648231905417390e-01
3.575721219182565580e+00 1.815191134896390569e-03 2.676557863501483503e+00 6.725242871970655845e-01
3.582041784633743120e+00 1.836067019019354488e-03 2.687687687687687621e+00 6.580688993547100241e-01
3.588351193306853926e+00 1.816205673054769026e-03 2.724458204334365252e+00 6.469773453670877306e-01
3.594644124218077774e+00 1.816162507538995278e-03 2.757097791798107433e+00 6.857118334159041373e-01
3.600965899690116157e+00 1.832434222657099978e-03 2.702875399361022168e+00 6.593400891518235163e-01
3.607301933810233674e+00 1.823864462282996299e-03 2.626229508196721518e+00 6.823690493303538052e-01
3.613589615564896995e+00 1.801875725405921403e-03 2.552542372881355881e+00 6.676245153799715837e-01
3.619872304563952703e+00 1.819848024125704684e-03 2.580756013745704625e+00 6.132359935758104896e-01
3.626184481674183946e+00 1.827760715362539709e-03 2.452631578947368496e+00 6.129112522538883168e-01
3.632455309189269510e+00 1.797655079431180383e-03 2.434306569343065885e+00 6.328934390349015837e-01
3.638754857574894697e+00 1.841922947680418475e-03 2.547445255474452441e+00 6.348476940579952377e-01
3.645110863435991444e+00 1.833895812584415653e-03 2.578947368421052655e+00 6.174804877486388399e-01
3.651399341121458253e+00 1.797724079201825547e-03 2.509803921568627416e+00 6.143234573620647287e-01
3.657684783062496781e+00 1.823089633617003442e-03 2.448412698412698596e+00 6.001910336684009861e-01
3.663989311092172851e+00 1.817352227903809700e-03 2.356557377049180335e+00 5.808983488492468483e-01
3.670338462676961733e+00 1.852037082036360515e-03 2.293388429752066138e+00 5.694088928545099071e-01
3.676667454351053799e+00 1.802731285318214709e-03 2.384279475982532759e+00 6.004644693847713821e-01
3.682957402673964431e+00 1.831301914300888494e-03 2.433628318584070804e+00 6.094319605911910909e-01
3.689264510226057059e+00 1.810576500315507495e-03 2.506912442396313168e+00 5.947022016590093330e-01
3.695607159299667099e+00 1.851070780809128090e-03 2.446511627906976738e+00 6.083962728997540648e-01
3.701906411334345837e+00 1.786914693256676148e-03 2.402985074626865725e+00 6.719733841486823511e-01
3.708163258087520564e+00 1.825159420261267002e-03 2.326633165829145700e+00 6.264499859198394693e-01
3.714507337749332283e+00 1.833043865117713490e-03 2.362694300518134671e+00 5.712185559616074215e-01
3.720870273368275249e+00 1.842023606415223082e-03 2.203208556149732544e+00 5.780350424330128467e-01
3.727157013165883104e+00 1.785929560704693081e-03 2.148571428571428577e+00 6.246631745450129669e-01
3.733414267292576749e+00 1.823616893326991065e-03 2.209302325581395277e+00 6.848629917501027897e-01
3.739747614563589284e+00 1.832601406324968355e-03 2.198795180722891374e+00 6.523292566930873893e-01
3.746091684029914770e+00 1.828992002129592063e-03 2.320754716981132226e+00 5.985425913447859347e-01
3.752406222021260618e+00 1.812401454337024109e-03 2.264900662251655650e+00 5.849598060125443810e-01
3.758712131096641595e+00 1.823143945980814458e-03 2.331034482758620907e+00 5.410167905504879027e-01
3.765000355804634324e+00 1.809969724265664184e-03 2.343065693430657070e+00 5.993851965844647633e-01
3.771324791207556704e+00 1.846593531196991230e-03 2.165413533834586346e+00 6.745999415385849352e-01
3.777640884128447674e+00 1.800430178895984180e-03 2.162601626016260159e+00 5.172674380678651262e-01
3.783890033752419058e+00 1.812352582976840126e-03 2.230769230769230838e+00 4.803844614152613102e-01
3.790205950757557840e+00 1.839564216382759279e-03 2.187500000000000000e+00 6.068801952845153114e-01
3.796547481197723339e+00 1.823144808823023381e-03 1.990384615384615419e+00 5.457948440891684516e-01
3.802839460639445335e+00 1.822115437231795494e-03 2.010309278350515427e+00 6.006868920394730083e-01
3.809162628389719529e+00 1.835235423465040759e-03 1.901098901098901006e+00 6.290668914884267604e-01
3.815477698903783743e+00 1.813833779597889004e-03 2.036144578313253017e+00 5.695877905336295122e-01
3.821777178949230969e+00 1.830898415393102585e-03 2.142857142857142794e+00 6.403269109413529669e-01
3.828076951026545771e+00 1.795694771849016581e-03 2.014492753623188470e+00 5.773502691896256200e-01
3.834316772867639944e+00 1.791896653628349866e-03 2.419354838709677491e+00 6.158671965173154739e-01
3.840583618544390898e+00 1.820001018717854217e-03 2.303571428571428381e+00 5.369034420847468292e-01
3.846911872181034475e+00 1.824281646184678762e-03 2.285714285714285587e+00 5.399492471560387585e-01
3.853313008086272973e+00 1.880829953221405115e-03 2.116279069767442067e+00 6.201065872545757918e-01
3.859656947796285653e+00 1.787945514535103963e-03 2.382352941176470562e+00 7.358821178351060421e-01
3.865825284683709118e+00 1.773175751446867720e-03 2.111111111111111160e+00 7.882887649552872134e-01
3.872064552013789740e+00 1.858490478498285668e-03 2.095238095238095344e+00 5.302632726504783456e-01
3.878243048288448236e+00 1.738115315901965106e-03 2.230769230769230838e+00 5.908573652206621230e-01
3.884441558101385361e+00 1.990091083924331716e-03 2.000000000000000000e+00 5.345224838248487931e-01
