# q qerr I(q) I(q)err
6.111313073595031620e-02 3.154100855865873791e-03 0.000000000000000000e+00 1.071428571428571397e+00
6.800242608866982619e-02 2.110752812487300123e-03 0.000000000000000000e+00 0.000000000000000000e+00
7.478812129850326285e-02 1.894856213165734514e-03 0.000000000000000000e+00 0.000000000000000000e+00
8.081736842982174818e-02 1.577734731020807597e-03 0.000000000000000000e+00 0.000000000000000000e+00
8.706192866790804508e-02 2.018057842609979804e-03 0.000000000000000000e+00 0.000000000000000000e+00
9.311361532868518698e-02 1.734318039620741251e-03 0.000000000000000000e+00 0.000000000000000000e+00
9.924832822165428892e-02 1.939409616079583844e-03 0.000000000000000000e+00 0.000000000000000000e+00
1.056867454532435108e-01 2.068262530006435406e-03 0.000000000000000000e+00 0.000000000000000000e+00
1.120935416356093062e-01 1.699923986068800717e-03 0.000000000000000000e+00 0.000000000000000000e+00
1.177168722532570266e-01 1.903764278506084144e-03 0.000000000000000000e+00 0.000000000000000000e+00
1.242406998858587575e-01 2.007415885574503726e-03 0.000000000000000000e+00 0.000000000000000000e+00
1.307844605212421796e-01 1.948859987027574741e-03 0.000000000000000000e+00 0.000000000000000000e+00
1.372938405551752672e-01 1.976444694498947011e-03 0.000000000000000000e+00 0.000000000000000000e+00
1.433626874055373979e-01 1.479129257371093872e-03 0.000000000000000000e+00 0.000000000000000000e+00
1.497414395840910573e-01 2.132896554945924294e-03 0.000000000000000000e+00 0.000000000000000000e+00
1.562016171858009728e-01 1.470810848565314282e-03 7.407407407407406996e-02 2.670778722565918528e-01
1.620883487451751925e-01 1.817360580555445800e-03 1.515151515151515194e-01 4.401769407979981286e-01
1.684939590642719198e-01 1.975568076388520972e-03 2.972972972972973138e-01 7.715731039794699875e-01
1.749358117034872373e-01 1.810730169671130639e-03 8.857142857142856762e-01 1.571428571428569620e+00
1.813634234827302405e-01 1.982290824745188643e-03 1.000000000000000000e+00 1.732050807568877193e+00
1.877608813777307539e-01 1.710969833005861022e-03 1.486486486486486402e+00 1.908230606281498654e+00
1.936838392192468117e-01 1.708352888559126238e-03 1.657894736842105310e+00 2.189752006601548118e+00
1.998200724089964908e-01 1.901042836663710675e-03 2.000000000000000000e+00 2.401549887148946461e+00
2.064988844748374130e-01 2.083185659227047067e-03 2.312500000000000000e+00 2.702718538804956605e+00
2.131062600015138364e-01 1.923054290541973939e-03 2.851063829787233939e+00 3.198432164585198301e+00
2.193208008558340527e-01 1.649587748772136844e-03 3.162790697674418450e+00 3.547102505104673398e+00
2.255197753110727010e-01 1.943898002345461392e-03 3.294117647058823373e+00 3.503170421039575100e+00
2.319084130262620835e-01 1.853433278599466881e-03 3.399999999999999911e+00 3.553589734339066553e+00
2.380456302514551703e-01 1.717913041466973250e-03 3.687500000000000000e+00 3.651483716701107163e+00
2.441826744061198484e-01 1.910984005326162374e-03 4.145454545454545503e+00 4.029396115778546061e+00
2.508567628905887248e-01 1.865639566994751813e-03 5.000000000000000000e+00 4.217857581835256831e+00
2.571616352083493928e-01 2.042758540577210586e-03 6.000000000000000000e+00 4.507446413517492978e+00
2.636090936505812721e-01 1.759536909171210452e-03 6.922077922077922274e+00 5.058687455470732175e+00
2.696276322290375727e-01 1.767913466712890637e-03 7.462500000000000355e+00 5.212185242295211296e+00
2.756934411426098519e-01 1.847457432374286813e-03 7.642857142857143238e+00 5.359602609900702141e+00
2.820483295007140123e-01 1.942127748479487680e-03 7.820224719101123156e+00 5.535324579893405428e+00
2.885873542857223528e-01 1.999902870285049771e-03 8.084210526315789735e+00 5.532117255593910876e+00
2.950059364807982032e-01 1.753155416080761590e-03 8.220930232558139039e+00 5.653794008938696436e+00
3.012776628394395750e-01 1.916275679195857595e-03 8.326315789473683893e+00 5.474544466813068055e+00
3.076468654533095481e-01 1.858480647863890167e-03 8.322580645161290036e+00 5.651762653291735106e+00
3.139397285054469910e-01 1.849733180513128640e-03 8.606382978723404520e+00 5.526572706932919132e+00
3.202097007249891103e-01 1.889977811219999311e-03 8.959183673469388154e+00 5.807099734831413507e+00
3.264390569218261762e-01 1.757358001834326191e-03 9.215053763440860024e+00 5.901443215589210922e+00
3.326951465344144543e-01 1.930481388006281569e-03 9.567307692307691624e+00 5.912093337654277470e+00
3.390239669727912464e-01 1.785238221274862988e-03 9.826530612244898322e+00 6.277492635274255051e+00
3.452290355408559885e-01 1.822729964848564038e-03 1.000000000000000000e+01 6.148489372897008920e+00
3.515217579766085620e-01 1.894166946962649433e-03 1.005714285714285694e+01 6.139423181928634676e+00
3.581115149106128270e-01 1.984833837990382030e-03 1.023893805309734439e+01 6.199334542234672618e+00
3.646365217867122976e-01 1.807385512883236643e-03 1.046728971962616761e+01 6.279400236062131491e+00
3.707522342694583029e-01 1.646676631311451595e-03 1.052999999999999936e+01 6.467951762343314925e+00
3.768404479121448269e-01 1.835047814059704218e-03 1.067567567567567544e+01 6.286694085329946446e+00
3.831651369708888866e-01 1.834489868729198949e-03 1.083783783783783861e+01 6.495957799894352291e+00
3.894643253735652899e-01 1.853753096359237081e-03 1.114159292035398252e+01 6.547901174371336452e+00
3.958807651630259494e-01 1.912159574900255954e-03 1.126666666666666750e+01 6.656283581031618546e+00
4.022473572087105209e-01 1.746533598099251966e-03 1.136036036036036023e+01 6.435365369654973300e+00
4.083991683103055381e-01 1.862831917861469243e-03 1.137815126050420211e+01 6.249276492265992466e+00
4.147868792651558945e-01 1.850918924272050396e-03 1.152892561983471076e+01 6.367322105326432613e+00
4.211381020132339281e-01 1.813003092898375071e-03 1.161157024793388359e+01 6.383317210569330769e+00
4.273404438934948479e-01 1.765577699919095717e-03 1.166386554621848681e+01 6.540255749756773263e+00
4.337195733954657406e-01 1.911235613422362228e-03 1.177692307692307772e+01 6.496334879291961073e+00
4.400834723796714920e-01 1.795304431444431784e-03 1.192741935483870996e+01 6.495826323524221735e+00
4.463380503116383125e-01 1.781136916513354146e-03 1.189682539682539719e+01 6.420178726901733413e+00
4.525475293404462862e-01 1.782735370135076804e-03 1.203149606299212593e+01 6.361736943900928587e+00
4.588781844142776345e-01 1.863542184770878652e-03 1.195522388059701413e+01 6.497810519398157680e+00
4.652813857520213814e-01 1.809454061223974295e-03 1.242857142857142883e+01 6.466222241400923387e+00
4.715886271752884884e-01 1.786725641485754782e-03 1.247014925373134275e+01 6.796537060660396534e+00
4.778700308571910971e-01 1.749120838384908864e-03 1.278195488721804551e+01 6.638608110419940367e+00
4.841075358786299798e-01 1.812598873705853009e-03 1.282608695652173836e+01 6.530115393876350538e+00
4.904685449060671165e-01 1.813034819841214708e-03 1.287857142857142811e+01 6.859724216506857708e+00
4.967988078032400945e-01 1.775169993053363985e-03 1.308510638297872397e+01 6.642899387164804992e+00
5.030461340587593089e-01 1.710738770771227935e-03 1.308695652173913082e+01 6.915663526834073593e+00
5.093789740337634209e-01 1.844995629980458740e-03 1.301342281879194651e+01 6.721190858639796595e+00
5.157895609665918979e-01 1.772173611217854692e-03 1.304109589041095951e+01 6.661479185230552602e+00
5.220653538623039047e-01 1.710912446064493482e-03 1.336363636363636331e+01 6.690173644591522972e+00
5.282420832211931483e-01 1.776221308977217429e-03 1.369594594594594561e+01 6.721794681478763245e+00
5.345849814872509764e-01 1.797460663252185451e-03 1.375000000000000000e+01 6.705383736418935925e+00
5.409400198384390901e-01 1.769240412124692928e-03 1.405882352941176450e+01 6.555210177336069144e+00
5.471612929737256215e-01 1.671871176479489780e-03 1.465540540540540526e+01 6.961322238239076476e+00
5.535187503546902255e-01 1.843477994232445120e-03 1.537654320987654266e+01 6.944847724915784504e+00
5.599303633336802921e-01 1.774845713676194252e-03 1.589171974522293063e+01 7.150364542581657545e+00
5.661980099607780703e-01 1.715649351238413218e-03 1.692857142857142705e+01 7.330395206095713156e+00
5.724333289920446877e-01 1.764199560704661452e-03 1.807499999999999929e+01 7.731904277084653998e+00
5.786575496797814466e-01 1.687338640378493104e-03 1.920779220779220609e+01 8.017253489606853023e+00
5.849918082512260975e-01 1.882166412490617838e-03 2.075000000000000000e+01 8.209821118069360324e+00
5.913559560974818163e-01 1.673563701773732749e-03 2.225477707006369599e+01 8.877820245993682136e+00
5.976003341774964728e-01 1.789272139650604403e-03 2.366863905325443795e+01 9.227278963872997508e+00
6.039710484280985670e-01 1.760471037718898532e-03 2.508333333333333215e+01 9.442784051058282557e+00
6.103455122609070527e-01 1.778153705054047679e-03 2.598245614035087669e+01 9.899769571587739847e+00
6.165941547084902163e-01 1.709282904712068618e-03 2.631736526946107801e+01 9.866928067890951226e+00
6.227886440901039267e-01 1.708031916550016484e-03 2.620238095238095255e+01 9.869180451745508620e+00
6.292222757675741684e-01 1.895555695838723603e-03 2.529946524064171243e+01 9.318066349340959675e+00
6.355837393651907474e-01 1.609918394456906487e-03 2.369090909090909136e+01 9.094429621352901449e+00
6.417201133152361514e-01 1.735489606861494215e-03 2.258426966292134708e+01 8.424756264509936088e+00
6.480234646877054416e-01 1.746502386866512820e-03 2.102247191011235827e+01 8.228797263635154735e+00
6.543745591304535036e-01 1.808595843625667669e-03 1.976086956521739069e+01 7.680168961299101760e+00
6.607410482875138991e-01 1.776914150084337417e-03 1.835869565217391397e+01 7.403247224745329369e+00
6.669765730033264672e-01 1.670208017253243388e-03 1.742045454545454675e+01 7.123228176098273856e+00
6.731673103258457580e-01 1.796482171393593615e-03 1.686702127659574302e+01 6.727421873954947174e+00
6.795850853652600776e-01 1.822834825668488831e-03 1.625654450261779971e+01 6.759397516397627648e+00
6.858902177354958551e-01 1.747430487391250960e-03 1.625268817204301186e+01 6.684670452178316680e+00
6.921278880332987216e-01 1.765781770802452586e-03 1.569841269841269771e+01 6.807056693467764319e+00
6.985070946107704293e-01 1.847715388967816497e-03 1.571212121212121282e+01 6.392191823988214949e+00
7.048037128132643714e-01 1.757666077632949074e-03 1.541269841269841301e+01 6.491028494100813617e+00
7.109847861020758275e-01 1.767854622430342420e-03 1.521354166666666607e+01 6.452332561648624676e+00
7.172345948602801835e-01 1.822657136245004524e-03 1.526262626262626299e+01 6.446988985003612171e+00
7.236608500653414211e-01 1.906739358311473767e-03 1.516585365853658551e+01 6.359754109861016858e+00
7.299519259881649402e-01 1.814756391122580772e-03 1.533163265306122369e+01 6.303859973243833181e+00
7.362298620906445601e-01 1.872001608046580190e-03 1.526960784313725483e+01 6.176902412542350618e+00
7.427109241448597299e-01 1.961252361706546793e-03 1.520093457943925230e+01 6.022372909109141581e+00
7.489749171607754663e-01 1.795506848231544564e-03 1.494871794871794890e+01 6.437245747007300345e+00
7.553119902396251417e-01 1.968290517240121971e-03 1.518721461187214672e+01 6.298695746535202922e+00
7.617428847945948434e-01 1.878647625832918257e-03 1.514009661835748766e+01 6.398247531309880998e+00
7.679897535333021219e-01 1.889655825210407886e-03 1.527272727272727337e+01 6.148375625806841605e+00
7.742716946001383382e-01 1.890740870187222538e-03 1.515962441314553999e+01 6.256539262373834731e+00
7.806130493972306406e-01 1.874127862848933099e-03 1.523113207547169878e+01 6.235513649530251001e+00
7.869955317179381238e-01 1.962138593108325030e-03 1.526785714285714235e+01 5.996723967453958970e+00
7.933337815560531636e-01 1.823456314192357453e-03 1.524761904761904674e+01 6.065661126205385223e+00
7.995722808394026826e-01 1.873920736445982161e-03 1.532579185520362053e+01 5.934738890092563501e+00
8.059029702364099990e-01 1.855844282913126459e-03 1.513698630136986267e+01 6.269090441575939643e+00
8.122482529694946551e-01 1.899897789708842157e-03 1.528193832599118984e+01 5.959938904227608525e+00
8.185971333973350861e-01 1.831057107996742058e-03 1.515246636771300537e+01 6.050597053838314920e+00
8.248840800988579414e-01 1.805078930334647752e-03 1.509417040358744444e+01 5.910436384884620864e+00
8.311527541867054225e-01 1.843524136775542745e-03 1.514847161572052414e+01 6.046436186150740966e+00
8.375116084758876811e-01 1.829773299230467044e-03 1.529130434782608638e+01 6.182996991414536403e+00
8.438261475186588090e-01 1.817550564165925373e-03 1.544827586206896619e+01 6.127533813060693113e+00
8.500843452560248314e-01 1.755513946144033992e-03 1.536283185840708043e+01 6.255479233450338405e+00
8.563647400134730692e-01 1.844487251387733453e-03 1.549792531120331951e+01 6.048814872424028266e+00
8.626696591174244366e-01 1.710203360544058351e-03 1.529385964912280649e+01 6.155373227941089098e+00
8.689830853488446083e-01 1.844123492424595270e-03 1.544308943089430919e+01 6.021690583683591669e+00
8.753179752476163422e-01 1.741457950302257533e-03 1.523404255319148959e+01 5.886646157854000805e+00
8.815756228481118617e-01 1.752464905610253906e-03 1.504564315352697079e+01 5.792950204198063169e+00
8.877944678552249780e-01 1.716242394594354789e-03 1.505063291139240533e+01 5.901599239015833831e+00
8.941407927930166144e-01 1.839522330085644050e-03 1.539525691699604693e+01 5.775739627265583209e+00
9.005003621585947471e-01 1.752218829319661820e-03 1.546938775510204067e+01 5.822016550821040859e+00
9.067627482844141662e-01 1.720498064613873055e-03 1.543032786885245855e+01 6.045336199155261880e+00
9.130278025298368405e-01 1.789374596252915357e-03 1.540079365079365026e+01 5.733471978847085815e+00
9.193563827426239898e-01 1.786117629316656989e-03 1.504761904761904745e+01 5.701042855894598027e+00
9.256709965929463824e-01 1.773964252230773864e-03 1.507843137254901933e+01 5.603048821294534854e+00
9.319487846442510159e-01 1.740175819907428248e-03 1.504800000000000004e+01 5.595166485458682004e+00
9.382375230166524194e-01 1.835219923763222079e-03 1.511068702290076260e+01 5.628071939241518606e+00
9.445114335627492475e-01 1.754301698834087597e-03 1.500000000000000000e+01 5.589020857913989282e+00
9.507739483173833772e-01 1.796477233495237351e-03 1.499233716475095868e+01 5.590419079519201695e+00
9.571000001339345920e-01 1.844157663989784944e-03 1.527169811320754711e+01 5.642730984049134868e+00
9.634651872700409347e-01 1.860525514413665987e-03 1.534210526315789558e+01 5.528875168173660093e+00
9.697902983397413967e-01 1.869026222830578836e-03 1.538345864661654083e+01 5.438746634103200250e+00
9.761731987705594138e-01 1.898719003246270758e-03 1.544649446494464939e+01 5.448998914187281883e+00
9.824546988499620603e-01 1.850375251942234242e-03 1.548679245283018879e+01 5.527185153484286850e+00
9.887603507672997338e-01 1.885371791598095068e-03 1.526838235294117574e+01 5.599591788754966437e+00
9.951547945742836854e-01 1.923480157877882840e-03 1.533096085409252751e+01 5.428130105878720357e+00
1.001497743307979915e+00 1.816985016266823736e-03 1.512359550561797761e+01 5.509965416471544586e+00
1.007730073445106012e+00 1.872875193246743668e-03 1.505755395683453202e+01 5.400551760595932116e+00
1.014110590476311025e+00 1.881534321868284657e-03 1.509219858156028415e+01 5.244617313402958558e+00
1.020442888611849064e+00 1.823625195420996601e-03 1.529032258064516192e+01 5.338966847805438398e+00
1.026691701700078063e+00 1.782759485576686145e-03 1.525362318840579690e+01 5.559787035854697912e+00
1.033057845114525142e+00 1.884320384582664851e-03 1.530272108843537460e+01 5.271331959437838499e+00
1.039437792018165441e+00 1.793463056649077922e-03 1.509540636042402895e+01 5.360343666343023727e+00
1.045681248368910410e+00 1.745618337461533540e-03 1.503900709219858101e+01 5.263149668150686189e+00
1.051944871571292683e+00 1.801987856022948175e-03 1.491724137931034555e+01 5.306122369646659287e+00
1.058324809813473877e+00 1.829265674919061668e-03 1.494612794612794637e+01 5.252571656533343791e+00
1.064596602572098316e+00 1.714864743882408334e-03 1.503521126760563398e+01 5.146680558349093992e+00
1.070868750588993112e+00 1.792957436204007347e-03 1.497643097643097576e+01 5.094993729509611491e+00
1.077195490251847465e+00 1.798916779777443367e-03 1.493645484949832714e+01 5.106468157816045128e+00
1.083505800573759448e+00 1.740543057611223946e-03 1.505802047781569897e+01 5.311161430593664967e+00
1.089676915900379850e+00 1.748165881083384946e-03 1.491496598639455762e+01 5.213075239681383088e+00
1.096052400832523421e+00 1.863573573199493825e-03 1.501597444089456879e+01 5.077651372201951396e+00
1.102364289960501065e+00 1.744372504095847640e-03 1.516610169491525362e+01 5.142058915814626374e+00
1.108625070827478076e+00 1.829094711995288541e-03 1.500000000000000000e+01 5.213675327775288970e+00
1.114924075445366869e+00 1.842999932655674591e-03 1.452922077922077904e+01 4.919899373959835565e+00
1.121282665432693726e+00 1.762017027877181303e-03 1.432442748091603058e+01 5.253042772041473185e+00
1.127553932619258736e+00 1.851826979229859085e-03 1.436802973977695252e+01 5.091334238951580105e+00
1.133905639228342421e+00 1.803927404845938115e-03 1.439215686274509842e+01 5.256994023124769377e+00
1.140144523104706709e+00 1.820967272376473748e-03 1.437007874015747966e+01 5.318065584744431362e+00
1.146455214771981312e+00 1.831860927088285957e-03 1.431474103585657431e+01 5.504959806115297560e+00
1.152869066430118439e+00 1.902391342003174283e-03 1.455598455598455665e+01 5.329488956968451596e+00
1.159252377890596986e+00 1.791659613503928782e-03 1.427800829875518751e+01 5.468374352516665482e+00
1.165575291556828930e+00 1.872439892399787795e-03 1.476494023904382402e+01 5.245334263061367075e+00
1.171828433925186763e+00 1.747387590499659572e-03 1.448051948051948123e+01 5.598447085681992341e+00
1.178029580193284076e+00 1.845903894892485285e-03 1.469135802469135754e+01 5.260514929604783063e+00
1.184400904434957269e+00 1.829516060217846983e-03 1.448117154811715501e+01 5.287605481707839061e+00
1.190737654720273042e+00 1.816225366119703435e-03 1.472151898734177244e+01 5.335314151733461685e+00
1.196977477342464180e+00 1.780548390738201196e-03 1.458951965065502243e+01 5.416296115477233108e+00
1.203312963818603976e+00 1.874247930763579166e-03 1.477272727272727337e+01 5.388721281978312128e+00
1.209645773529357093e+00 1.750259837788138012e-03 1.451769911504424826e+01 5.538660145417610536e+00
1.215952225700388523e+00 1.837678281197498587e-03 1.473305084745762628e+01 5.305463786751436039e+00
1.222254898926581568e+00 1.775628514659025698e-03 1.422846441947565488e+01 5.019546861246806380e+00
1.228537298751265050e+00 1.780223345631782141e-03 1.477536231884058004e+01 5.138956016069573529e+00
1.234759587745337228e+00 1.795376270296014523e-03 1.484587813620071728e+01 5.104365493338034909e+00
1.241110555825225781e+00 1.895169703334604900e-03 1.502684563758389302e+01 5.008319280479683222e+00
1.247523323486311897e+00 1.874537877840588536e-03 1.480743243243243157e+01 4.967744295153552869e+00
1.253854431820907944e+00 1.857283623330970761e-03 1.474161073825503365e+01 5.005984887100523473e+00
1.260138295168494293e+00 1.856490137450314505e-03 1.446179401993355462e+01 5.118292523518906734e+00
1.266501421045549414e+00 1.881588491645209797e-03 1.438906752411575596e+01 4.798282080408650785e+00
1.272807251993681055e+00 1.824447191781883651e-03 1.422295081967213193e+01 4.791749157027661354e+00
1.279100636071537789e+00 1.831925956271344968e-03 1.424522292993630579e+01 4.813847811866470039e+00
1.285385940199903265e+00 1.796864974607813087e-03 1.442948717948717885e+01 4.731535706791366813e+00
1.291734086560349049e+00 1.833790085687247952e-03 1.444171779141104217e+01 4.723273000787045817e+00
1.297999116585571544e+00 1.712347548001254965e-03 1.436569579288025977e+01 4.710396842954379437e+00
1.304332283077917598e+00 1.862331657852500611e-03 1.451917404129793532e+01 4.608938520469290978e+00
1.310629912671008812e+00 1.689758514739712848e-03 1.441025641025641058e+01 4.683542324437718563e+00
1.316859893871710430e+00 1.807323329610554348e-03 1.429850746268656714e+01 4.617438639078359941e+00
1.323169508333509325e+00 1.772103529485381237e-03 1.408510638297872397e+01 4.572849080856539850e+00
1.329416719622044551e+00 1.761213072716576004e-03 1.423564954682779415e+01 4.537808601407049558e+00
1.335676763851219473e+00 1.808340606324402439e-03 1.430357142857142883e+01 4.633386632224151924e+00
1.342102166253144047e+00 1.916040745002256648e-03 1.459718309859154850e+01 4.587181885565436268e+00
1.348432554966731090e+00 1.804515701739407276e-03 1.438368580060422985e+01 4.667382347010355481e+00
1.354697325729501189e+00 1.895450207138361931e-03 1.417847025495750657e+01 4.509333991072143277e+00
1.361035554581970564e+00 1.836151892644552735e-03 1.406104651162790731e+01 4.596440442091689782e+00
1.367445372286436589e+00 1.911657172750392099e-03 1.409589041095890494e+01 4.507448850491939218e+00
1.373833054624600258e+00 1.794265400870382644e-03 1.412173913043478279e+01 4.489281500774340294e+00
1.380048052911932777e+00 1.791287036868802413e-03 1.432763532763532766e+01 4.396207110580163224e+00
1.386332670155489666e+00 1.806335848089170130e-03 1.421629213483146081e+01 4.371948951455987498e+00
1.392624520144640332e+00 1.796075039907524609e-03 1.430000000000000071e+01 4.468998147733385551e+00
1.398923000198597277e+00 1.771229759338340285e-03 1.430337078651685445e+01 4.378682824188004474e+00
1.405184482923453881e+00 1.808998902686751115e-03 1.424456521739130466e+01 4.390650174584233234e+00
1.411475199677901360e+00 1.734371386327675756e-03 1.423033707865168473e+01 4.408031069749827502e+00
1.417706081410672780e+00 1.817237095201347432e-03 1.434139784946236595e+01 4.271682159330606687e+00
1.424046144262549829e+00 1.816956160244514703e-03 1.419512195121951237e+01 4.289694697781166965e+00
1.430457268966005335e+00 1.925855730949348329e-03 1.426992287917737734e+01 4.217398173476029299e+00
1.436865665354877475e+00 1.843763745384080412e-03 1.428225806451612989e+01 4.234283134059719345e+00
1.443084111958556903e+00 1.831535442318516687e-03 1.422043010752688197e+01 4.294953640921186810e+00
1.449466238371406979e+00 1.910439897345804971e-03 1.437974683544303822e+01 4.123847816538836142e+00
1.455780432464144347e+00 1.769262236301017126e-03 1.434324324324324351e+01 4.216361743850217003e+00
1.462109939136078340e+00 1.873282905934200038e-03 1.426065162907268125e+01 4.176900579573673333e+00
1.468414112563870999e+00 1.734923018383166060e-03 1.421866666666666745e+01 4.199138959358215573e+00
1.474680891373796765e+00 1.804015195942032307e-03 1.451015228426395964e+01 4.180863323503323237e+00
1.480924591063775386e+00 1.742163032935032654e-03 1.455091383812010442e+01 4.338577961850731413e+00
1.487138550370334267e+00 1.742602934721402272e-03 1.480462724935732588e+01 4.300402413824077286e+00
1.493462591150057195e+00 1.833511633313982111e-03 1.480445544554455495e+01 4.282232587075438524e+00
1.499809278721849770e+00 1.805357266360340307e-03 1.484634760705289658e+01 4.219563872445295516e+00
1.506175762378094918e+00 1.888906516140883814e-03 1.491442542787286030e+01 4.181961296109750315e+00
1.512543466733061504e+00 1.879653113941155348e-03 1.469117647058823550e+01 4.201942656398179210e+00
1.518927121842702510e+00 1.865813122140227640e-03 1.467647058823529349e+01 4.163323341475502204e+00
1.525176469146275027e+00 1.826629940430822378e-03 1.467493796526054517e+01 4.179915290976354392e+00
1.531416651941075235e+00 1.798854978931840659e-03 1.455198019801980180e+01 4.099160864393740056e+00
1.537728221615372926e+00 1.856986876758172280e-03 1.457919621749408989e+01 4.049246529138309292e+00
1.544096010846849332e+00 1.769518617434322075e-03 1.487834549878345491e+01 4.073770953562248387e+00
1.550405005344789089e+00 1.809055686031393537e-03 1.506382978723404342e+01 4.142366138269251152e+00
1.556696834359960313e+00 1.740139413919524446e-03 1.505097087378640808e+01 4.122216796434472030e+00
1.562969221032702194e+00 1.804120915253569534e-03 1.489622641509433976e+01 4.075447130429096454e+00
1.569251838380229191e+00 1.803338776033149233e-03 1.477804295942720714e+01 4.022352829730440504e+00
1.575556094315494926e+00 1.863019847936644557e-03 1.493939393939393945e+01 3.995149633941666334e+00
1.581892448177514066e+00 1.865480693804838323e-03 1.477546296296296369e+01 4.015593266662443206e+00
1.588269483401412163e+00 1.861295980786164313e-03 1.464285714285714235e+01 3.982764050244629761e+00
1.594574325321363339e+00 1.830133252637398044e-03 1.468750000000000000e+01 3.944493348679621647e+00
1.600916934751582588e+00 1.832077894544300927e-03 1.468564920273348484e+01 3.975238059426317250e+00
1.607201343968552854e+00 1.780442356845074459e-03 1.468055555555555536e+01 3.881519969504542367e+00
1.613445462524496721e+00 1.775524639999344866e-03 1.455275229357798139e+01 3.871899306808891605e+00
1.619730849749851931e+00 1.787630240083115185e-03 1.440406320541760721e+01 3.700734095145164826e+00
1.625979803600224649e+00 1.755895091839796123e-03 1.438160919540229798e+01 3.801703938226629553e+00
1.632226613292544926e+00 1.821174808670054370e-03 1.428187919463087319e+01 3.811781189998661556e+00
1.638606704061473573e+00 1.894452323361247963e-03 1.421258134490238589e+01 3.785856659961002624e+00
1.645050487946952522e+00 1.887301666918968484e-03 1.393260869565217419e+01 3.729682198333673870e+00
1.651415996904310735e+00 1.851783837096881687e-03 1.380921052631578938e+01 3.739960398958824594e+00
1.657788871265904573e+00 1.852242853945953917e-03 1.384233261339092813e+01 3.614027331031193668e+00
1.664006124760511351e+00 1.741113674427757210e-03 1.372562358276644012e+01 3.685334691015404118e+00
1.670281873961185770e+00 1.842366346193471905e-03 1.373361522198731421e+01 3.584134977564967350e+00
1.676541801276667298e+00 1.721555322686186195e-03 1.362780269058295879e+01 3.668384821116951411e+00
1.682793682471841024e+00 1.824670227224382997e-03 1.365189873417721600e+01 3.444317520988294579e+00
1.689107465299970467e+00 1.791603935857043455e-03 1.362906724511930534e+01 3.556546487828873726e+00
1.695415952935033443e+00 1.877357617877282179e-03 1.377453027139874742e+01 3.451853092106212717e+00
1.701806617780016628e+00 1.875253898477295287e-03 1.380167014613778775e+01 3.563313514492688405e+00
1.708145235544118012e+00 1.851238026496159058e-03 1.368210526315789544e+01 3.768757997285746342e+00
1.714469347376187613e+00 1.845626368464784459e-03 1.362525879917184213e+01 3.621535855016534189e+00
1.720739519194126599e+00 1.771881702320935673e-03 1.349145299145299148e+01 3.619291043859983237e+00
1.726990948287859817e+00 1.820993782645452704e-03 1.353061224489795933e+01 3.575304019774993680e+00
1.733361150263370787e+00 1.784216608021570085e-03 1.403719008264462786e+01 8.128788724863065696e+00
1.739571674833123582e+00 1.760427731239605715e-03 1.646540880503144777e+01 3.317481631343191140e+01
1.745887440247851030e+00 1.853392121839796862e-03 1.807615230460922007e+01 5.253190999635540237e+01
1.752250177420427102e+00 1.860925844240075020e-03 1.646153846153845990e+01 3.210966881667676631e+01
1.758607387389414800e+00 1.864192030273802104e-03 1.402200000000000024e+01 7.146017072467695463e+00
1.764972322429467777e+00 1.851098948525789619e-03 1.352399999999999913e+01 3.303403093780716393e+00
1.771273520234028620e+00 1.808016239517707931e-03 1.335483870967741993e+01 3.384887912628924411e+00
1.777586992161852564e+00 1.807004964737956481e-03 1.323168316831683100e+01 3.270366422827103214e+00
1.783840233931820451e+00 1.746107465683986813e-03 1.303462321792260781e+01 3.266644992675757031e+00
1.790071520275328565e+00 1.795583184790444783e-03 1.312598425196850371e+01 3.185555178540090626e+00
1.796393698957722052e+00 1.819993601147859141e-03 1.305533596837944721e+01 3.266038543026262619e+00
1.802712928873270393e+00 1.883216042231023422e-03 1.299425287356321768e+01 3.206786688405002028e+00
1.809114577024696358e+00 1.850157529878445435e-03 1.288953488372093048e+01 3.293049122878303869e+00
1.815345782948464493e+00 1.803540499391122600e-03 1.288142292490118557e+01 3.376788590161693637e+00
1.821700705453981772e+00 1.863872113208649628e-03 1.299253731343283569e+01 3.270447355909366305e+00
1.828034416566336029e+00 1.759461126105644731e-03 1.285039370078740184e+01 3.258991292109949978e+00
1.834289862490237510e+00 1.817049905439401892e-03 1.288323917137476471e+01 3.146649211084821207e+00
1.840620947190598100e+00 1.780340576699249600e-03 1.287884615384615472e+01 3.136707654730132244e+00
1.846876290479544158e+00 1.833628160635640113e-03 1.279395085066162530e+01 3.135061373835913656e+00
1.853225331533147280e+00 1.864396810776891523e-03 1.269629629629629619e+01 3.141387075354079794e+00
1.859586416204100923e+00 1.843230203276794224e-03 1.251588785046729058e+01 3.179999071627882756e+00
1.865884580336470755e+00 1.827085395033201023e-03 1.238919925512104214e+01 3.179322906416996108e+00
1.872200528994375501e+00 1.799198018262535481e-03 1.238518518518518441e+01 3.045417524943759169e+00
1.878453452628845000e+00 1.760356359008985331e-03 1.239924670433144982e+01 3.112383063515862247e+00
1.884712324747962020e+00 1.805687576808031941e-03 1.243065693430656893e+01 3.064035439739833500e+00
1.891113706724730337e+00 1.861939656346446982e-03 1.245323741007194229e+01 2.978410749654011092e+00
1.897400945427566432e+00 1.833350088909791505e-03 1.242279411764705799e+01 2.965233644157970971e+00
1.903772875545957088e+00 1.875180743362649160e-03 1.240492957746478808e+01 3.144207486176405109e+00
1.910018917854334752e+00 1.739883276586547947e-03 1.234026465028355446e+01 3.166188523859343462e+00
1.916236012056648175e+00 1.833205283437960029e-03 1.235263157894736885e+01 3.090583798882212463e+00
1.922638163561010805e+00 1.793373418488206777e-03 1.243750000000000000e+01 3.136834733111890205e+00
1.928888348891847349e+00 1.792288115248428593e-03 1.235251798561151126e+01 3.011745291237446498e+00
1.935240631371640818e+00 1.865766417879262265e-03 1.231660899653979158e+01 2.900118468714242503e+00
1.941608872090050619e+00 1.856644915843207438e-03 1.219683655536028155e+01 2.921392866134930877e+00
1.947917338414854704e+00 1.837601359788319485e-03 1.225569176882662070e+01 2.951126916318139504e+00
1.954236834815996637e+00 1.805754229573221887e-03 1.215559440559440496e+01 2.929625531664871385e+00
1.960488135501994522e+00 1.772905664188001006e-03 1.216106194690265419e+01 2.966629870276884962e+00
1.966755922696415082e+00 1.810201296061439468e-03 1.214457831325301207e+01 2.887446864894722687e+00
1.973091583736556354e+00 1.814240900008777741e-03 1.218448275862068897e+01 2.867007579577621534e+00
1.979420480567132490e+00 1.865397302840512408e-03 1.222580645161290391e+01 2.808909409106837618e+00
1.985762243830389018e+00 1.849873766110382307e-03 1.211186440677966125e+01 2.942018450886192404e+00
1.992143605840229093e+00 1.840662096304069391e-03 1.203015075376884369e+01 2.809855661685742412e+00
1.998372952698491245e+00 1.738412627792555948e-03 1.196133567662565866e+01 2.870708601452018005e+00
2.004614638405731508e+00 1.821010887715033720e-03 1.191721854304635819e+01 2.821915812083879427e+00
2.010981699228176822e+00 1.807963355431743604e-03 1.182996632996633046e+01 2.785138701264338934e+00
2.017216781415232862e+00 1.822968187424302972e-03 1.190893760539628943e+01 2.744607335079462196e+00
2.023555507756473748e+00 1.866836436713831520e-03 1.186341463414634134e+01 2.752793184256403958e+00
2.029945947492921121e+00 1.842053164818473936e-03 1.183388157894736814e+01 2.852185196733926897e+00
2.036236367431154548e+00 1.802040352124230577e-03 1.161983471074380248e+01 2.799699457950081793e+00
2.042538823796997693e+00 1.786279422623429517e-03 1.143678160919540154e+01 2.742732709399612112e+00
2.048720173306640469e+00 1.747373060808409071e-03 1.136949152542372943e+01 2.734841221488175655e+00
2.055017041239767028e+00 1.892889576395914968e-03 1.144913928012519477e+01 2.675907160728697498e+00
2.061465280497128294e+00 1.850343878148330047e-03 1.137660256410256387e+01 2.776929624788075923e+00
2.067778354784032935e+00 1.826644103880053095e-03 1.130756843800322109e+01 2.725664390864257935e+00
2.074107962816127415e+00 1.810449409964311413e-03 1.126666666666666750e+01 2.636275230310198392e+00
2.080392027050733006e+00 1.757304311173108879e-03 1.123452768729641704e+01 2.687121699976218636e+00
2.086560915145909245e+00 1.789004268885935290e-03 1.125769854132901138e+01 2.623693201143712184e+00
2.092907509218693285e+00 1.897916204239676529e-03 1.118140243902439046e+01 2.514165511618046356e+00
2.099341076602548206e+00 1.841856996552926774e-03 1.088437500000000036e+01 2.573400026290607823e+00
2.105598503643897335e+00 1.780460926307301031e-03 1.098402555910543121e+01 2.527429170659374780e+00
2.111872942412509335e+00 1.813036870717739954e-03 1.095216049382715973e+01 2.527157779826896711e+00
2.118179840511383194e+00 1.773074262998883873e-03 1.088346456692913300e+01 2.504251453538699046e+00
2.124489700938873238e+00 1.854176769044688739e-03 1.086238532110091803e+01 2.413797325665238525e+00
2.130866139955553962e+00 1.876679961187130126e-03 1.087745839636913736e+01 2.530883848324521068e+00
2.137196345481136905e+00 1.803165093871285981e-03 1.087925696594427194e+01 2.578627716114148871e+00
2.143477781291089013e+00 1.808033309626025679e-03 1.089007633587786295e+01 2.485062418777438609e+00
2.149749346762158453e+00 1.787076492040512573e-03 1.075115207373271886e+01 2.409797522269994996e+00
2.156014428448592479e+00 1.811767013668930289e-03 1.079908675799086737e+01 2.325910744132152708e+00
2.162388958755252943e+00 1.899773100682969557e-03 1.074306569343065654e+01 2.313250510365009394e+00
2.168776559916051561e+00 1.828625003914755194e-03 1.061561561561561540e+01 2.410628745943803164e+00
2.175079146577416189e+00 1.799027495536281414e-03 1.052835820895522367e+01 2.379479923183644541e+00
2.181358965593887422e+00 1.775037425494343461e-03 1.053614457831325346e+01 2.292493208822696804e+00
2.187625576602315824e+00 1.830837683859201127e-03 1.049260355029585767e+01 2.258270670677906544e+00
2.193923842198696850e+00 1.837507381709080519e-03 1.046549192364170366e+01 2.274775344196154681e+00
2.200310743338333541e+00 1.859271066102410235e-03 1.030846484935437601e+01 2.412600983156663936e+00
2.206637920896229677e+00 1.789161753318371274e-03 1.029925925925925867e+01 2.375133177985757627e+00
2.212855268310565560e+00 1.778695396750237757e-03 1.028276877761413921e+01 2.310248398644592971e+00
2.219155297956861617e+00 1.826812665150635666e-03 1.027769784172661893e+01 2.262513409281297960e+00
2.225534449623195243e+00 1.883537061579874895e-03 1.013540197461212955e+01 2.235480281919048018e+00
2.231816049321749151e+00 1.789850136339156059e-03 9.892804698972099686e+00 2.374320382775776839e+00
2.238124350048766420e+00 1.838516226422660244e-03 9.921787709497206009e+00 2.266941772348763262e+00
2.244461256680506001e+00 1.769483755913013904e-03 9.945007235890013675e+00 2.212925875255946195e+00
2.250672411056880762e+00 1.815340560525242463e-03 9.968436154949785077e+00 2.240642595739438026e+00
2.256976265699253581e+00 1.875232856265233962e-03 9.980662983425414581e+00 2.184737978382531143e+00
2.263404067221236105e+00 1.844596500685106652e-03 9.931129476584022342e+00 2.320256826321305255e+00
2.269740131332425914e+00 1.784620609829179342e-03 9.923620933521924314e+00 2.293154177969146446e+00
2.275928662030326066e+00 1.770462641505800294e-03 9.746438746438746747e+00 2.153845211715376351e+00
2.282234771450446509e+00 1.859120215862977580e-03 9.768292682926828618e+00 2.039297643805760174e+00
2.288651494096741512e+00 1.861574731480084791e-03 9.625508819538669769e+00 2.095503340735635156e+00
2.294929189507614264e+00 1.787386468760323059e-03 9.547752808988764883e+00 2.136469101328567710e+00
2.301123790424945526e+00 1.773889529887621910e-03 9.448611111111111072e+00 2.028117361215616476e+00
2.307427473574251042e+00 1.823767960867003161e-03 9.331529093369418604e+00 2.065604296871877743e+00
2.313824548022820782e+00 1.807223345639351721e-03 9.312035661218425631e+00 2.101363226530525097e+00
2.320154992066300714e+00 1.861695907969135875e-03 9.239644970414200742e+00 2.232233325831250337e+00
2.326479049872378635e+00 1.797363522119922990e-03 9.152542372881356414e+00 2.168925677363210180e+00
2.332811122143054305e+00 1.834923033436536115e-03 8.972644376899696184e+00 2.110359540652333887e+00
2.339146829363451641e+00 1.809933127175767861e-03 8.902668759811616539e+00 2.026848104037806575e+00
2.345346999874724947e+00 1.788822558822959720e-03 8.778135048231511917e+00 2.080440518720969578e+00
2.351591514044208964e+00 1.821961582186779451e-03 8.737007874015748854e+00 2.077937091358906585e+00
2.357940827546205931e+00 1.821480796874143165e-03 8.659810126582279111e+00 2.008100284379009448e+00
2.364269371024037891e+00 1.822839816105960298e-03 8.653846153846153300e+00 1.961931207539237887e+00
2.370575565839220911e+00 1.828742917233826173e-03 8.556270096463022057e+00 2.004852159442755521e+00
2.376891771469677561e+00 1.815523241845057745e-03 8.448220064724919709e+00 2.073601709288364070e+00
2.383240749019818416e+00 1.833462819707767054e-03 8.308681672025723941e+00 1.968825282087671713e+00
2.389601619010945921e+00 1.828185711102788165e-03 8.237785016286645501e+00 1.925958948354466127e+00
2.395961259100775731e+00 1.812604844355751544e-03 8.117647058823528994e+00 1.958801329025286808e+00
2.402160007896914973e+00 1.807533258736503850e-03 8.147761194029850884e+00 1.971634446979215083e+00
2.408453972146052724e+00 1.793232887210479852e-03 8.261695906432748870e+00 1.991362242261545346e+00
2.414771780432101167e+00 1.830638750947721858e-03 8.291248206599712844e+00 1.972613012717862491e+00
2.421058800843912895e+00 1.849123668637423033e-03 8.297029702970297294e+00 1.905816598034925757e+00
2.427397847212681370e+00 1.833909450969152099e-03 8.163888888888889639e+00 1.946801151176520639e+00
2.433701938443864954e+00 1.777285794113256248e-03 8.008438818565400297e+00 1.963076106561009837e+00
2.440001432560962691e+00 1.835928632076300280e-03 8.065663474692202684e+00 1.889894581086197123e+00
2.446276920633820851e+00 1.825543246774167941e-03 8.012379642365887733e+00 1.879045736208545758e+00
2.452612917458465880e+00 1.850886418197054181e-03 7.953580901856764029e+00 1.879432484064704534e+00
2.458937188373468086e+00 1.764090576915684772e-03 7.921917808219178347e+00 1.848535604377973263e+00
2.465235494564519847e+00 1.842465198645606636e-03 7.977542932628797878e+00 1.776328934033755358e+00
2.471581205305689810e+00 1.856761058240425245e-03 7.927631578947368141e+00 1.794343219684489732e+00
2.477865992864338285e+00 1.798850075022648308e-03 7.853528628495339170e+00 1.863426706785618947e+00
2.484122936716935737e+00 1.780971833254360159e-03 7.857331571994715880e+00 1.842708197854575847e+00
2.490467721662181333e+00 1.849468727863495983e-03 7.832694763729246112e+00 1.828857549025109330e+00
2.496849546734450254e+00 1.852734310658727887e-03 7.661558109833971564e+00 1.804979085297097274e+00
2.503105859710241798e+00 1.772860352036017325e-03 7.523746701846965479e+00 1.778127259658793813e+00
2.509322203788900918e+00 1.804578376445024500e-03 7.574358974358974095e+00 1.754942302529375553e+00
2.515643032193938478e+00 1.830400595634155535e-03 7.693954659949621799e+00 1.714629942607231117e+00
2.522012436559997628e+00 1.844427975373299751e-03 7.606699751861041747e+00 1.788414091907620351e+00
2.528376527697731913e+00 1.805263014170996501e-03 7.655778894472361706e+00 1.773386164210134286e+00
2.534662305746367750e+00 1.817191430107880853e-03 7.659949622166246641e+00 1.710777198874898319e+00
2.540923642722284104e+00 1.847774197163838152e-03 7.596534653465346842e+00 1.692319147979418181e+00
2.547222087144660030e+00 1.810867478977307979e-03 7.532178217821781985e+00 1.813963831740981636e+00
2.553540685742163419e+00 1.807658101810726481e-03 7.563035495716034617e+00 1.699797204214230861e+00
2.559925401613222018e+00 1.856915584780679824e-03 7.565269461077844149e+00 1.738179267586132726e+00
2.566280305514876403e+00 1.838802799104265022e-03 7.483050847457627164e+00 1.815905567455948555e+00
2.572544852388987113e+00 1.785952156998167010e-03 7.503067484662576447e+00 1.809058799714861721e+00
2.578799894204640619e+00 1.806472379669163885e-03 7.510278113663845012e+00 1.751203736686614887e+00
2.585123793491197919e+00 1.855120447360665906e-03 7.454759106933019908e+00 1.708643604375424063e+00
2.591472256141813091e+00 1.805120360344933915e-03 7.386174016686531729e+00 1.770593387739907820e+00
2.597744265483155957e+00 1.788819714346394623e-03 7.377697841726618577e+00 1.679829155730858892e+00
2.604038454996993934e+00 1.850630787333012181e-03 7.473193473193473046e+00 1.617703861897461515e+00
2.610374414453144443e+00 1.837105816396599096e-03 7.444703143189755679e+00 1.775387315280928302e+00
2.616634120485421100e+00 1.761050173804210722e-03 7.379474940334128874e+00 1.659106080985870646e+00
2.622940397920966227e+00 1.848634675493098997e-03 7.342434584755404003e+00 1.591812678912902346e+00
2.629323187355575353e+00 1.839581463337864892e-03 7.342465753424657571e+00 1.650585457128900035e+00
2.635681273538560632e+00 1.815290224604702678e-03 7.369988545246276779e+00 1.749771278926904872e+00
2.641934789831782204e+00 1.778405014700361417e-03 7.269953051643192055e+00 1.603685877407534655e+00
2.648176773767660031e+00 1.853093332118325998e-03 7.228861330326944667e+00 1.555355881465387613e+00
2.654514065851063087e+00 1.823524830511773481e-03 7.218079096045197929e+00 1.673363544494869126e+00
2.660817448321032508e+00 1.798052776896779401e-03 7.312855517633674474e+00 1.636569286925633859e+00
2.667123571907564994e+00 1.844852426740933296e-03 7.406666666666666288e+00 1.589048166064852774e+00
2.673472329675100401e+00 1.839448802019330543e-03 7.322259136212624142e+00 1.696372538725537060e+00
2.679761377760365715e+00 1.786299887381436651e-03 7.188914027149321484e+00 1.667034742291203964e+00
2.686129035698236578e+00 1.877272974428747035e-03 6.935312831389183863e+00 1.979746171896553220e+00
2.692300573720700196e+00 1.798376592015874225e-03 7.058361391694725206e+00 1.599671532299612897e+00
2.698561328278970439e+00 1.798779619418457414e-03 7.281641961231470894e+00 1.181729053029626719e+00
2.704947056964875252e+00 1.860594623228957294e-03 7.335955056179775724e+00 1.131711140169941343e+00
2.711339925705444909e+00 1.826229981736538378e-03 7.332175925925925597e+00 1.175067809895764093e+00
2.717643416720191052e+00 1.774618570520191145e-03 7.181384248210023635e+00 1.146547676031498986e+00
2.723934694222051256e+00 1.823763048442502126e-03 7.153482880755608342e+00 1.141262535609568474e+00
2.730274673678132036e+00 1.841398355898408350e-03 7.126328217237308138e+00 1.153307040574222508e+00
2.736591263199737778e+00 1.788312012670147501e-03 7.134146341463414309e+00 1.160518202577103919e+00
2.742885231028380222e+00 1.844652457607765493e-03 7.179856115107913439e+00 1.109259825618020390e+00
2.749161241756704843e+00 1.804773587711254630e-03 7.124078624078624244e+00 1.143076658696251968e+00
2.755398232824302962e+00 1.776157869081165970e-03 7.021065675340768308e+00 1.105165829535963651e+00
2.761751565609168679e+00 1.857903093933079139e-03 6.992831541218637703e+00 1.074828663397719319e+00
2.768124311574730267e+00 1.813883183384283311e-03 6.938650306748466612e+00 9.943837168068054844e-01
2.774423663616722546e+00 1.776295681999270643e-03 6.848938826466916652e+00 1.005335663492964215e+00
2.780754869867226198e+00 1.842436817654598789e-03 6.856272838002436032e+00 1.028163972502024404e+00
2.787077464795406190e+00 1.805278297034774168e-03 6.831249999999999822e+00 1.071826711740288873e+00
2.793346642012575654e+00 1.793644434711254678e-03 6.878940731399747932e+00 1.079008261521194223e+00
2.799634253246212179e+00 1.838111547031318375e-03 6.880893300248138722e+00 1.113556577266857861e+00
2.805924842988945844e+00 1.808245895551135627e-03 6.785353535353535470e+00 1.148283443601936460e+00
2.812167973206011862e+00 1.789098639402584082e-03 6.719948849104858901e+00 1.074220556541344740e+00
2.818496662748549042e+00 1.874446068014908040e-03 6.750611246943765131e+00 1.009657102231928949e+00
2.824858807967614460e+00 1.791571154666717633e-03 6.617834394904458684e+00 9.669494700017234878e-01
2.831150482550185643e+00 1.815112775054883139e-03 6.445569620253164267e+00 9.397044130538247941e-01
2.837475400148095517e+00 1.850316795954077458e-03 6.354919053549190622e+00 9.970085947335851628e-01
2.843805018276897911e+00 1.786824753329564535e-03 6.426187419768934816e+00 1.035277594232582699e+00
2.850131561922547352e+00 1.845583173970813699e-03 6.428214731585518038e+00 9.997194124441459717e-01
2.856484494638581229e+00 1.841115527677602507e-03 6.389788293897883165e+00 9.864499491846532298e-01
2.862782859862781137e+00 1.780809355167121575e-03 6.290816326530611846e+00 9.230499949683996785e-01
2.869068523143336158e+00 1.847699945098150954e-03 6.319018404907975395e+00 9.804057211543533157e-01
2.875378514069953706e+00 1.802909528894259443e-03 6.268414481897628399e+00 9.517441121559961914e-01
2.881671995666307051e+00 1.819305449905813353e-03 6.135403726708074323e+00 9.380675242984991558e-01
2.887980092673573917e+00 1.848812746508326317e-03 6.140931372549019329e+00 9.682039565009415982e-01
2.894292086458025270e+00 1.795011172749967111e-03 6.092964824120603140e+00 8.975214110064856365e-01
2.900588101801901963e+00 1.834444505730529681e-03 6.002472187886279009e+00 8.796543369693373693e-01
2.906894294921833044e+00 1.834235081131648307e-03 5.936802973977695075e+00 9.231389763057209485e-01
2.913143215321425394e+00 1.775388414920497622e-03 5.987195902688860372e+00 9.316316108293615228e-01
2.919469846096636179e+00 1.902110692867622259e-03 5.984412470023980468e+00 8.627529515290611739e-01
2.925831071463227850e+00 1.799019204260941503e-03 5.960659898477157270e+00 9.010295273048579690e-01
2.932125236913744715e+00 1.849572311535908030e-03 5.902348578491965370e+00 9.256594123584049871e-01
2.938426190430696305e+00 1.829943172517629413e-03 5.822721598002496890e+00 9.095479035800213552e-01
2.944698497868602605e+00 1.792371922793937686e-03 5.803299492385787239e+00 9.600620755180080401e-01
2.951032364443879619e+00 1.872648010744969562e-03 5.794902912621359370e+00 9.903254681889820388e-01
2.957349976869245278e+00 1.772646084934545842e-03 5.731457800511509326e+00 1.012288685856943538e+00
2.963641534615172990e+00 1.843499637433317897e-03 5.664197530864197638e+00 9.964913297560195060e-01
2.969974563050315375e+00 1.835483252247156055e-03 5.578881987577640089e+00 9.495470484592966054e-01
2.976261971728969780e+00 1.784595762971840369e-03 5.576530612244898322e+00 8.885501073159360885e-01
2.982555079221103078e+00 1.856376802478345786e-03 5.550795593635251102e+00 8.466889781817797944e-01
2.988860230475899549e+00 1.767956570045068222e-03 5.444302176696543150e+00 8.347996507730777171e-01
2.995178874680174186e+00 1.856934622757372335e-03 5.375305623471883010e+00 8.770062429331773046e-01
3.001496400543723020e+00 1.797819739674591305e-03 5.311787072243346230e+00 8.954271713202753835e-01
3.007822553902104179e+00 1.849516356328991537e-03 5.357673267326732436e+00 8.537845994974312402e-01
3.014155913686516808e+00 1.844070628166239031e-03 5.350310559006211442e+00 8.521530881326312423e-01
3.020427983220980828e+00 1.780401570183770890e-03 5.334615384615384315e+00 8.893962227408230836e-01
3.026726854870708916e+00 1.864734463497724846e-03 6.720048899755501459e+00 2.072758491926892788e+01
3.033042693621903041e+00 1.790509691971886499e-03 1.480229591836734748e+01 1.197721644423620120e+02
3.039417687211595442e+00 1.892848977299335135e-03 1.679468599033816290e+01 1.578251795764497842e+02
3.045771113053035606e+00 1.809002971513908259e-03 8.108998732572876733e+00 4.800972566114035089e+01
3.052089874155329063e+00 1.844438578281415919e-03 5.140198511166253148e+00 2.414364006681884778e+00
3.058386304167925118e+00 1.824217551217444024e-03 5.005012531328320691e+00 7.923387563217169083e-01
3.064635661305841197e+00 1.781811879387494579e-03 5.117948717948717530e+00 8.816263138455879833e-01
3.070942258104439215e+00 1.879278577764203085e-03 5.095757575757575708e+00 7.631917897809036289e-01
3.077306102136554866e+00 1.789896323379901438e-03 5.040660736975858036e+00 7.389503847333189768e-01
3.083610248093582751e+00 1.842323938384468965e-03 4.970479704797048370e+00 7.733745741908181204e-01
3.089899276602742884e+00 1.781295098450355954e-03 4.848407643312102167e+00 7.963362900657844357e-01
3.096219282790054539e+00 1.849962857272845727e-03 4.867647058823528994e+00 8.002554198655714712e-01
3.102516781183005889e+00 1.793151767743564459e-03 4.944233206590620711e+00 8.291966994681312375e-01
3.108846425703184035e+00 1.844538984569745127e-03 4.892988929889298788e+00 8.032705485743626417e-01
3.115155056293756886e+00 1.812510444856532069e-03 4.762860727728983612e+00 7.686971316039530322e-01
3.121484332076036150e+00 1.832521331068808152e-03 4.767990074441687653e+00 8.172930369105242399e-01
3.127777573742708483e+00 1.818133687887086257e-03 4.739401496259351809e+00 7.762644051489970831e-01
3.134074710556275623e+00 1.800750836428910992e-03 4.774274905422446480e+00 8.292945717469325517e-01
3.140350968701055567e+00 1.840082388152106639e-03 4.815270935960590748e+00 8.731813692517920167e-01
3.146669598331559570e+00 1.795769837056059460e-03 4.727272727272727515e+00 7.912225084331455660e-01
3.152959210157879166e+00 1.842768641532451131e-03 4.607361963190183651e+00 8.010447091097315786e-01
3.159264892205651432e+00 1.791857333635609589e-03 4.507594936708860800e+00 8.002863611822017553e-01
3.165581888857809112e+00 1.858342078644047027e-03 4.588592233009708643e+00 8.020917429483669370e-01
3.171905560319084216e+00 1.782720971754531017e-03 4.544993662864385442e+00 7.898257646104945850e-01
3.178180461481988406e+00 1.828434529921516482e-03 4.482800982800982936e+00 7.756601490080765604e-01
3.184506679420991304e+00 1.810619157308176325e-03 4.396014943960149246e+00 7.799345877069797650e-01
3.190846230582273346e+00 1.831490456789015321e-03 4.348410757946210126e+00 7.973453393296444647e-01
3.197132365687451294e+00 1.780884113596707067e-03 4.317721518987341689e+00 7.577194466384851168e-01
3.203454230992797136e+00 1.862619862555806765e-03 4.347406513872135392e+00 7.659004733021522737e-01
3.209790152929830498e+00 1.796864404628749357e-03 4.320754716981132226e+00 8.314027714718437156e-01
3.216105270782768422e+00 1.849581865447865814e-03 4.330097087378640630e+00 7.684176223767329450e-01
3.222383723154825574e+00 1.773184836801974633e-03 4.253807106598984866e+00 8.649201026646349266e-01
3.228652903688512765e+00 1.829814433570467642e-03 4.285018270401948826e+00 8.881344933020383081e-01
3.234977992221026444e+00 1.801123950508762587e-03 4.235074626865671377e+00 7.970764133026086995e-01
3.241301441286830176e+00 1.830570155328411054e-03 4.201701093560146205e+00 7.674414416870408706e-01
3.247581817024004280e+00 1.774748969754167847e-03 4.135271807838179825e+00 7.257771355794445656e-01
3.253885986942128827e+00 1.868811343678552150e-03 4.153293413173652304e+00 7.394217975168478896e-01
3.260235987169183947e+00 1.804603356501592029e-03 4.101250000000000284e+00 7.253447456210047051e-01
3.266546856392692710e+00 1.857627301288636550e-03 4.134615384615385025e+00 7.476386643862147352e-01
3.272886904023045052e+00 1.792569475559808913e-03 4.044999999999999929e+00 8.018922932663732350e-01
3.279153478698136670e+00 1.837211362056317054e-03 3.944242424242424327e+00 7.811253683875991616e-01
3.285516195699416553e+00 1.819318898053023329e-03 3.902948402948402951e+00 7.073116493678983652e-01
3.291677990232397821e+00 1.824817096246810931e-03 3.837483617300131211e+00 7.556562181331556438e-01
3.298068987764390059e+00 1.863784166448585874e-03 3.784931506849315230e+00 7.186547345630276418e-01
3.304430978840338096e+00 1.814787339162488022e-03 3.758720930232557933e+00 6.943568164772556672e-01
3.310737564052387061e+00 1.817945227602999880e-03 3.690476190476190688e+00 7.572167903405851996e-01
3.317033906120231190e+00 1.800198345421728579e-03 3.716486902927580882e+00 7.826607821464022230e-01
3.323313479518194669e+00 1.810036704891648416e-03 3.755485893416927734e+00 7.611360150019230719e-01
3.329645772824664451e+00 1.853775369266378323e-03 3.702028081123244885e+00 7.408194134835912603e-01
3.335990548707715053e+00 1.826590486813650920e-03 3.635634028892456016e+00 7.537222331836251898e-01
3.342268739174953929e+00 1.807641793864574143e-03 3.631321370309950947e+00 7.068875222433613770e-01
3.348554594221377023e+00 1.807536448754866812e-03 3.657894736842105310e+00 7.076880445655792107e-01
3.354810866618635590e+00 1.798386852034845364e-03 3.621440536013400546e+00 7.525133784294545380e-01
3.361143554435736203e+00 1.860575678898459748e-03 3.519672131147541183e+00 7.217733245703067402e-01
3.367505271257411170e+00 1.829077091643749146e-03 3.511824324324324120e+00 6.992141511335169257e-01
3.373804785089639324e+00 1.803149868685275390e-03 3.433275563258232133e+00 7.078593021160349830e-01
3.380079784639911100e+00 1.805631642174917659e-03 3.381370826010544839e+00 7.256581784032467564e-01
3.386416571036835244e+00 1.843579116849991192e-03 3.341549295774647987e+00 6.959148729655091348e-01
3.392732849186819166e+00 1.821713749179523084e-03 3.330308529945553708e+00 7.369113893740614207e-01
3.399077842768783331e+00 1.840157085703132342e-03 3.298913043478260754e+00 7.601704863002537449e-01
3.405368445234043140e+00 1.771416845865005909e-03 3.213740458015267087e+00 7.115122176056513092e-01
3.411642977450664915e+00 1.840004348347408980e-03 3.208646616541353414e+00 6.869471422744581890e-01
3.417946432239648225e+00 1.816648589106147462e-03 3.194174757281553312e+00 7.183809993664446170e-01
3.424268333461439884e+00 1.838339958730071926e-03 3.303675048355899424e+00 7.235025119712982233e-01
3.430601598134079389e+00 1.799761940178920376e-03 3.248496993987975756e+00 6.736299385175021914e-01
3.436922606236269218e+00 1.844213366763177700e-03 3.168000000000000149e+00 6.497014699075256416e-01
3.443269856433799347e+00 1.834668830692703879e-03 3.245398773006134885e+00 7.060902837298135282e-01
3.449516618902171317e+00 1.769622948488585408e-03 3.262820512820512775e+00 7.278581995304508334e-01
3.455771942280530862e+00 1.817195070858158281e-03 3.346723044397462932e+00 6.796407205377957839e-01
3.462154010515302804e+00 1.866018191136946868e-03 3.291139240506329333e+00 6.705277285138743215e-01
3.468478914699885340e+00 1.799468636805881495e-03 3.179600886917960167e+00 6.914619126169705421e-01
3.474737530089159865e+00 1.798535080277152308e-03 3.107623318385650091e+00 6.695519284071997923e-01
3.481027808853469629e+00 1.828779808500339806e-03 3.104072398190045323e+00 6.898041267026069345e-01
3.487370903609774420e+00 1.855504762412056021e-03 3.027149321266968229e+00 6.358472408716772106e-01
3.493710577164840458e+00 1.791815171782784382e-03 2.988179669030732732e+00 6.375356625897263818e-01
3.499981309375833849e+00 1.817721919481020843e-03 3.028639618138424972e+00 6.639093092314598543e-01
3.506294281862427642e+00 1.840208171226962808e-03 3.105515587529975807e+00 6.505169125887920734e-01
3.512643170548069183e+00 1.819719049123772565e-03 2.965601965601965428e+00 6.805187165302520880e-01
3.518887929185086527e+00 1.780316295825717758e-03 2.812820512820513041e+00 6.566205592599639873e-01
3.525201780775713889e+00 1.871585280235478531e-03 2.779156327543424343e+00 6.381659310326674994e-01
3.531587235286628879e+00 1.812415240060859375e-03 2.885416666666666519e+00 6.571794014004083140e-01
3.537791204901774123e+00 1.765649031450039182e-03 2.956403269754768193e+00 6.690080818535539819e-01
3.544104483213670331e+00 1.881636984785636617e-03 2.945312500000000000e+00 6.224884432494844910e-01
3.550526160049383151e+00 1.823753900979235669e-03 2.844262295081967373e+00 6.336795425202063070e-01
3.556826252644191833e+00 1.805941154371571225e-03 2.963380281690140894e+00 6.950272543924763680e-01
3.563110991539715666e+00 1.831382697511484874e-03 2.931818181818181657e+00 6.599230640106648060e-01
3.569418747584309326e+00 1.819035597463529485e-03 2.825581395348837344e+00 6.827621421694977100e-01
3.575721219182565580e+00 1.815191134896390569e-03 2.821958456973293838e+00 6.166326327599623847e-01
3.582041784633743120e+00 1.836067019019354488e-03 2.786786786786786596e+00 6.681259898284397369e-01
3.588351193306853926e+00 1.816205673054769026e-03 2.616099071207430349e+00 6.270783003259795541e-01
3.594644124218077774e+00 1.816162507538995278e-03 2.630914826498422787e+00 6.608663407027642878e-01
3.600965899690116157e+00 1.832434222657099978e-03 2.712460063897763618e+00 6.563376600566320773e-01
3.607301933810233674e+00 1.823864462282996299e-03 2.777049180327868960e+00 6.417608804537172640e-01
3.613589615564896995e+00 1.801875725405921403e-03 2.732203389830508478e+00 6.446028107934747009e-01
3.619872304563952703e+00 1.819848024125704684e-03 2.714776632302405623e+00 5.863312374224368684e-01
3.626184481674183946e+00 1.827760715362539709e-03 2.747368421052631682e+00 6.395115864877483070e-01
3.632455309189269510e+00 1.797655079431180383e-03 2.791970802919708117e+00 6.560618699942674104e-01
3.638754857574894697e+00 1.841922947680418475e-03 2.744525547445255675e+00 6.804391933676751103e-01
3.645110863435991444e+00 1.833895812584415653e-03 2.639097744360902276e+00 6.371709122675619508e-01
3.651399341121458253e+00 1.797724079201825547e-03 2.654901960784313619e+00 6.635799359617469140e-01
3.657684783062496781e+00 1.823089633617003442e-03 2.555555555555555358e+00 6.448137967285588745e-01
3.663989311092172851e+00 1.817352227903809700e-03 2.491803278688524692e+00 5.987535202540881230e-01
3.670338462676961733e+00 1.852037082036360515e-03 2.504132231404958553e+00 5.926547641093313779e-01
3.676667454351053799e+00 1.802731285318214709e-03 2.449781659388646116e+00 6.579121095200272107e-01
3.682957402673964431e+00 1.831301914300888494e-03 2.362831858407079544e+00 5.822242196081741650e-01
3.689264510226057059e+00 1.810576500315507495e-03 2.423963133640552936e+00 5.816683253636746320e-01
3.695607159299667099e+00 1.851070780809128090e-03 2.320930232558139572e+00 5.991340424857628522e-01
3.701906411334345837e+00 1.786914693256676148e-03 2.393034825870646642e+00 5.915797367942210450e-01
3.708163258087520564e+00 1.825159420261267002e-03 2.326633165829145700e+00 6.422928361514944617e-01
3.714507337749332283e+00 1.833043865117713490e-03 2.445595854922279599e+00 6.197289744058827043e-01
3.720870273368275249e+00 1.842023606415223082e-03 2.443850267379679142e+00 6.316275474432099246e-01
3.727157013165883104e+00 1.785929560704693081e-03 2.474285714285714199e+00 6.507515278663648095e-01
3.733414267292576749e+00 1.823616893326991065e-03 2.296511627906976827e+00 6.108249216516637992e-01
3.739747614563589284e+00 1.832601406324968355e-03 2.271084337349397408e+00 6.543289082874467200e-01
3.746091684029914770e+00 1.828992002129592063e-03 2.371069182389937247e+00 6.012460197249680505e-01
3.752406222021260618e+00 1.812401454337024109e-03 2.291390728476821348e+00 4.981435647441452286e-01
3.758712131096641595e+00 1.823143945980814458e-03 2.372413793103448132e+00 5.648440063294696278e-01
3.765000355804634324e+00 1.809969724265664184e-03 2.218978102189780977e+00 5.772425961975918840e-01
3.771324791207556704e+00 1.846593531196991230e-03 2.195488721804511378e+00 6.076751083060680791e-01
3.777640884128447674e+00 1.800430178895984180e-03 2.081300813008130302e+00 6.199153671775048391e-01
3.783890033752419058e+00 1.812352582976840126e-03 2.205128205128205288e+00 6.620484352491310398e-01
3.790205950757557840e+00 1.839564216382759279e-03 2.223214285714285587e+00 5.641274642475467838e-01
3.796547481197723339e+00 1.823144808823023381e-03 2.173076923076922906e+00 5.637928928565019149e-01
3.802839460639445335e+00 1.822115437231795494e-03 2.288659793814432852e+00 4.784660365308163188e-01
3.809162628389719529e+00 1.835235423465040759e-03 2.197802197802197988e+00 5.802364299975421025e-01
3.815477698903783743e+00 1.813833779597889004e-03 1.927710843373493965e+00 5.961116567158063484e-01
3.821777178949230969e+00 1.830898415393102585e-03 1.987012987012987120e+00 5.695068038774210306e-01
3.828076951026545771e+00 1.795694771849016581e-03 1.971014492753623282e+00 5.886984351185478026e-01
3.834316772867639944e+00 1.791896653628349866e-03 2.096774193548387011e+00 6.415219935919787009e-01
3.840583618544390898e+00 1.820001018717854217e-03 1.910714285714285809e+00 4.322756584610786823e-01
3.846911872181034475e+00 1.824281646184678762e-03 2.040816326530612290e+00 4.508310619260106900e-01
3.853313008086272973e+00 1.880829953221405115e-03 2.232558139534883690e+00 6.453226476982143467e-01
3.859656947796285653e+00 1.787945514535103963e-03 1.911764705882353033e+00 6.563504001300408675e-01
3.865825284683709118e+00 1.773175751446867720e-03 1.740740740740740700e+00 5.749694331948156378e-01
3.872064552013789740e+00 1.858490478498285668e-03 2.095238095238095344e+00 6.135285107964345563e-01
3.878243048288448236e+00 1.738115315901965106e-03 2.538461538461538325e+00 6.661733875264913562e-01
3.884441558101385361e+00 1.990091083924331716e-03 2.142857142857142794e+00 1.000000000000000000e+00
