# q qerr I(q) I(q)err
6.111313073595031620e-02 3.154100855865873791e-03 0.000000000000000000e+00 0.000000000000000000e+00
6.800242608866982619e-02 2.110752812487300123e-03 0.000000000000000000e+00 0.000000000000000000e+00
7.478812129850326285e-02 1.894856213165734514e-03 0.000000000000000000e+00 0.000000000000000000e+00
8.081736842982174818e-02 1.577734731020807597e-03 0.000000000000000000e+00 0.000000000000000000e+00
8.706192866790804508e-02 2.018057842609979804e-03 0.000000000000000000e+00 0.000000000000000000e+00
9.311361532868518698e-02 1.734318039620741251e-03 0.000000000000000000e+00 0.000000000000000000e+00
9.924832822165428892e-02 1.939409616079583844e-03 0.000000000000000000e+00 0.000000000000000000e+00
1.056867454532435108e-01 2.068262530006435406e-03 0.000000000000000000e+00 0.000000000000000000e+00
1.120935416356093062e-01 1.699923986068800717e-03 0.000000000000000000e+00 0.000000000000000000e+00
1.177168722532570266e-01 1.903764278506084144e-03 0.000000000000000000e+00 0.000000000000000000e+00
1.242406998858587575e-01 2.007415885574503726e-03 0.000000000000000000e+00 0.000000000000000000e+00
1.307844605212421796e-01 1.948859987027574741e-03 0.000000000000000000e+00 0.000000000000000000e+00
1.372938405551752672e-01 1.976444694498947011e-03 0.000000000000000000e+00 0.000000000000000000e+00
1.433626874055373979e-01 1.479129257371093872e-03 0.000000000000000000e+00 0.000000000000000000e+00
1.497414395840910573e-01 2.132896554945924294e-03 0.000000000000000000e+00 0.000000000000000000e+00
1.562016171858009728e-01 1.470810848565314282e-03 0.000000000000000000e+00 0.000000000000000000e+00
1.620883487451751925e-01 1.817360580555445800e-03 0.000000000000000000e+00 0.000000000000000000e+00
1.684939590642719198e-01 1.975568076388520972e-03 0.000000000000000000e+00 0.000000000000000000e+00
1.749358117034872373e-01 1.810730169671130639e-03 0.000000000000000000e+00 0.000000000000000000e+00
1.813634234827302405e-01 1.982290824745188643e-03 0.000000000000000000e+00 0.000000000000000000e+00
1.877608813777307539e-01 1.710969833005861022e-03 0.000000000000000000e+00 0.000000000000000000e+00
1.936838392192468117e-01 1.708352888559126238e-03 0.000000000000000000e+00 0.000000000000000000e+00
1.998200724089964908e-01 1.901042836663710675e-03 0.000000000000000000e+00 0.000000000000000000e+00
2.064988844748374130e-01 2.083185659227047067e-03 0.000000000000000000e+00 0.000000000000000000e+00
2.131062600015138364e-01 1.923054290541973939e-03 0.000000000000000000e+00 0.000000000000000000e+00
2.193208008558340527e-01 1.649587748772136844e-03 0.000000000000000000e+00 0.000000000000000000e+00
2.255197753110727010e-01 1.943898002345461392e-03 0.000000000000000000e+00 0.000000000000000000e+00
2.319084130262620835e-01 1.853433278599466881e-03 0.000000000000000000e+00 0.000000000000000000e+00
2.380456302514551703e-01 1.717913041466973250e-03 0.000000000000000000e+00 0.000000000000000000e+00
2.441826744061198484e-01 1.910984005326162374e-03 0.000000000000000000e+00 0.000000000000000000e+00
2.508567628905887248e-01 1.865639566994751813e-03 0.000000000000000000e+00 0.000000000000000000e+00
2.571616352083493928e-01 2.042758540577210586e-03 0.000000000000000000e+00 0.000000000000000000e+00
2.636090936505812721e-01 1.759536909171210452e-03 0.000000000000000000e+00 0.000000000000000000e+00
2.696276322290375727e-01 1.767913466712890637e-03 0.000000000000000000e+00 0.000000000000000000e+00
2.756934411426098519e-01 1.847457432374286813e-03 0.000000000000000000e+00 0.000000000000000000e+00
2.820483295007140123e-01 1.942127748479487680e-03 0.000000000000000000e+00 0.000000000000000000e+00
2.885873542857223528e-01 1.999902870285049771e-03 0.000000000000000000e+00 0.000000000000000000e+00
2.950059364807982032e-01 1.753155416080761590e-03 0.000000000000000000e+00 0.000000000000000000e+00
3.012776628394395750e-01 1.916275679195857595e-03 0.000000000000000000e+00 0.000000000000000000e+00
3.076468654533095481e-01 1.858480647863890167e-03 0.000000000000000000e+00 0.000000000000000000e+00
3.139397285054469910e-01 1.849733180513128640e-03 0.000000000000000000e+00 0.000000000000000000e+00
3.202097007249891103e-01 1.889977811219999311e-03 0.000000000000000000e+00 0.000000000000000000e+00
3.264390569218261762e-01 1.757358001834326191e-03 0.000000000000000000e+00 0.000000000000000000e+00
3.326951465344144543e-01 1.930481388006281569e-03 0.000000000000000000e+00 0.000000000000000000e+00
3.390239669727912464e-01 1.785238221274862988e-03 0.000000000000000000e+00 0.000000000000000000e+00
3.452290355408559885e-01 1.822729964848564038e-03 0.000000000000000000e+00 0.000000000000000000e+00
3.515217579766085620e-01 1.894166946962649433e-03 0.000000000000000000e+00 0.000000000000000000e+00
3.581115149106128270e-01 1.984833837990382030e-03 0.000000000000000000e+00 0.000000000000000000e+00
3.646365217867122976e-01 1.807385512883236643e-03 0.000000000000000000e+00 0.000000000000000000e+00
3.707522342694583029e-01 1.646676631311451595e-03 0.000000000000000000e+00 0.000000000000000000e+00
3.768404479121448269e-01 1.835047814059704218e-03 0.000000000000000000e+00 0.000000000000000000e+00
3.831651369708888866e-01 1.834489868729198949e-03 0.000000000000000000e+00 0.000000000000000000e+00
3.894643253735652899e-01 1.853753096359237081e-03 0.000000000000000000e+00 0.000000000000000000e+00
3.958807651630259494e-01 1.912159574900255954e-03 0.000000000000000000e+00 0.000000000000000000e+00
4.022473572087105209e-01 1.746533598099251966e-03 0.000000000000000000e+00 0.000000000000000000e+00
4.083991683103055381e-01 1.862831917861469243e-03 0.000000000000000000e+00 0.000000000000000000e+00
4.147868792651558945e-01 1.850918924272050396e-03 0.000000000000000000e+00 0.000000000000000000e+00
4.211381020132339281e-01 1.813003092898375071e-03 0.000000000000000000e+00 0.000000000000000000e+00
4.273404438934948479e-01 1.765577699919095717e-03 0.000000000000000000e+00 0.000000000000000000e+00
4.337195733954657406e-01 1.911235613422362228e-03 0.000000000000000000e+00 0.000000000000000000e+00
4.400834723796714920e-01 1.795304431444431784e-03 0.000000000000000000e+00 0.000000000000000000e+00
4.463380503116383125e-01 1.781136916513354146e-03 0.000000000000000000e+00 0.000000000000000000e+00
4.525475293404462862e-01 1.782735370135076804e-03 0.000000000000000000e+00 0.000000000000000000e+00
4.588781844142776345e-01 1.863542184770878652e-03 0.000000000000000000e+00 0.000000000000000000e+00
4.652813857520213814e-01 1.809454061223974295e-03 0.000000000000000000e+00 0.000000000000000000e+00
4.715886271752884884e-01 1.786725641485754782e-03 0.000000000000000000e+00 0.000000000000000000e+00
4.778700308571910971e-01 1.749120838384908864e-03 0.000000000000000000e+00 0.000000000000000000e+00
4.841075358786299798e-01 1.812598873705853009e-03 0.000000000000000000e+00 0.000000000000000000e+00
4.904685449060671165e-01 1.813034819841214708e-03 0.000000000000000000e+00 0.000000000000000000e+00
4.967988078032400945e-01 1.775169993053363985e-03 0.000000000000000000e+00 0.000000000000000000e+00
5.030461340587593089e-01 1.710738770771227935e-03 0.000000000000000000e+00 0.000000000000000000e+00
5.093789740337634209e-01 1.844995629980458740e-03 0.000000000000000000e+00 0.000000000000000000e+00
5.157895609665918979e-01 1.772173611217854692e-03 0.000000000000000000e+00 0.000000000000000000e+00
5.220653538623039047e-01 1.710912446064493482e-03 0.000000000000000000e+00 0.000000000000000000e+00
5.282420832211931483e-01 1.776221308977217429e-03 0.000000000000000000e+00 0.000000000000000000e+00
5.345849814872509764e-01 1.797460663252185451e-03 0.000000000000000000e+00 0.000000000000000000e+00
5.409400198384390901e-01 1.769240412124692928e-03 0.000000000000000000e+00 0.000000000000000000e+00
5.471612929737256215e-01 1.671871176479489780e-03 0.000000000000000000e+00 0.000000000000000000e+00
5.535187503546902255e-01 1.843477994232445120e-03 0.000000000000000000e+00 0.000000000000000000e+00
5.599303633336802921e-01 1.774845713676194252e-03 0.000000000000000000e+00 0.000000000000000000e+00
5.661980099607780703e-01 1.715649351238413218e-03 0.000000000000000000e+00 0.000000000000000000e+00
5.724333289920446877e-01 1.764199560704661452e-03 0.000000000000000000e+00 0.000000000000000000e+00
5.786575496797814466e-01 1.687338640378493104e-03 0.000000000000000000e+00 0.000000000000000000e+00
5.849918082512260975e-01 1.882166412490617838e-03 0.000000000000000000e+00 0.000000000000000000e+00
5.913559560974818163e-01 1.673563701773732749e-03 0.000000000000000000e+00 0.000000000000000000e+00
5.976003341774964728e-01 1.789272139650604403e-03 0.000000000000000000e+00 0.000000000000000000e+00
6.039710484280985670e-01 1.760471037718898532e-03 0.000000000000000000e+00 0.000000000000000000e+00
6.103455122609070527e-01 1.778153705054047679e-03 0.000000000000000000e+00 0.000000000000000000e+00
6.165941547084902163e-01 1.709282904712068618e-03 0.000000000000000000e+00 0.000000000000000000e+00
6.227886440901039267e-01 1.708031916550016484e-03 0.000000000000000000e+00 0.000000000000000000e+00
6.292222757675741684e-01 1.895555695838723603e-03 0.000000000000000000e+00 0.000000000000000000e+00
6.355837393651907474e-01 1.609918394456906487e-03 0.000000000000000000e+00 0.000000000000000000e+00
6.417201133152361514e-01 1.735489606861494215e-03 0.000000000000000000e+00 0.000000000000000000e+00
6.480234646877054416e-01 1.746502386866512820e-03 0.000000000000000000e+00 0.000000000000000000e+00
6.543745591304535036e-01 1.808595843625667669e-03 0.000000000000000000e+00 0.000000000000000000e+00
6.607410482875138991e-01 1.776914150084337417e-03 0.000000000000000000e+00 0.000000000000000000e+00
6.669765730033264672e-01 1.670208017253243388e-03 0.000000000000000000e+00 0.000000000000000000e+00
6.731673103258457580e-01 1.796482171393593615e-03 0.000000000000000000e+00 0.000000000000000000e+00
6.795850853652600776e-01 1.822834825668488831e-03 0.000000000000000000e+00 0.000000000000000000e+00
6.858902177354958551e-01 1.747430487391250960e-03 0.000000000000000000e+00 0.000000000000000000e+00
6.921278880332987216e-01 1.765781770802452586e-03 0.000000000000000000e+00 0.000000000000000000e+00
6.985070946107704293e-01 1.847715388967816497e-03 0.000000000000000000e+00 0.000000000000000000e+00
7.048037128132643714e-01 1.757666077632949074e-03 0.000000000000000000e+00 0.000000000000000000e+00
7.109847861020758275e-01 1.767854622430342420e-03 0.000000000000000000e+00 0.000000000000000000e+00
7.172345948602801835e-01 1.822657136245004524e-03 0.000000000000000000e+00 0.000000000000000000e+00
7.236608500653414211e-01 1.906739358311473767e-03 0.000000000000000000e+00 0.000000000000000000e+00
7.299519259881649402e-01 1.814756391122580772e-03 0.000000000000000000e+00 0.000000000000000000e+00
7.362298620906445601e-01 1.872001608046580190e-03 0.000000000000000000e+00 0.000000000000000000e+00
7.427109241448597299e-01 1.961252361706546793e-03 0.000000000000000000e+00 0.000000000000000000e+00
7.489749171607754663e-01 1.795506848231544564e-03 0.000000000000000000e+00 0.000000000000000000e+00
7.553119902396251417e-01 1.968290517240121971e-03 0.000000000000000000e+00 0.000000000000000000e+00
7.617428847945948434e-01 1.878647625832918257e-03 0.000000000000000000e+00 0.000000000000000000e+00
7.679897535333021219e-01 1.889655825210407886e-03 0.000000000000000000e+00 0.000000000000000000e+00
7.742716946001383382e-01 1.890740870187222538e-03 0.000000000000000000e+00 0.000000000000000000e+00
7.806130493972306406e-01 1.874127862848933099e-03 0.000000000000000000e+00 0.000000000000000000e+00
7.869955317179381238e-01 1.962138593108325030e-03 0.000000000000000000e+00 0.000000000000000000e+00
7.933337815560531636e-01 1.823456314192357453e-03 0.000000000000000000e+00 0.000000000000000000e+00
7.995722808394026826e-01 1.873920736445982161e-03 0.000000000000000000e+00 0.000000000000000000e+00
8.059029702364099990e-01 1.855844282913126459e-03 0.000000000000000000e+00 0.000000000000000000e+00
8.122482529694946551e-01 1.899897789708842157e-03 0.000000000000000000e+00 0.000000000000000000e+00
8.185971333973350861e-01 1.831057107996742058e-03 0.000000000000000000e+00 0.000000000000000000e+00
8.248840800988579414e-01 1.805078930334647752e-03 0.000000000000000000e+00 0.000000000000000000e+00
8.311527541867054225e-01 1.843524136775542745e-03 0.000000000000000000e+00 0.000000000000000000e+00
8.375116084758876811e-01 1.829773299230467044e-03 0.000000000000000000e+00 0.000000000000000000e+00
8.438261475186588090e-01 1.817550564165925373e-03 0.000000000000000000e+00 0.000000000000000000e+00
8.500843452560248314e-01 1.755513946144033992e-03 0.000000000000000000e+00 0.000000000000000000e+00
8.563647400134730692e-01 1.844487251387733453e-03 0.000000000000000000e+00 0.000000000000000000e+00
8.626696591174244366e-01 1.710203360544058351e-03 0.000000000000000000e+00 0.000000000000000000e+00
8.689830853488446083e-01 1.844123492424595270e-03 0.000000000000000000e+00 0.000000000000000000e+00
8.753179752476163422e-01 1.741457950302257533e-03 0.000000000000000000e+00 0.000000000000000000e+00
8.815756228481118617e-01 1.752464905610253906e-03 0.000000000000000000e+00 0.000000000000000000e+00
8.877944678552249780e-01 1.716242394594354789e-03 0.000000000000000000e+00 0.000000000000000000e+00
8.941407927930166144e-01 1.839522330085644050e-03 0.000000000000000000e+00 0.000000000000000000e+00
9.005003621585947471e-01 1.752218829319661820e-03 0.000000000000000000e+00 0.000000000000000000e+00
9.067627482844141662e-01 1.720498064613873055e-03 0.000000000000000000e+00 0.000000000000000000e+00
9.130278025298368405e-01 1.789374596252915357e-03 0.000000000000000000e+00 0.000000000000000000e+00
9.193563827426239898e-01 1.786117629316656989e-03 0.000000000000000000e+00 0.000000000000000000e+00
9.256709965929463824e-01 1.773964252230773864e-03 0.000000000000000000e+00 0.000000000000000000e+00
9.319487846442510159e-01 1.740175819907428248e-03 0.000000000000000000e+00 0.000000000000000000e+00
9.382375230166524194e-01 1.835219923763222079e-03 0.000000000000000000e+00 0.000000000000000000e+00
9.445114335627492475e-01 1.754301698834087597e-03 0.000000000000000000e+00 0.000000000000000000e+00
9.507739483173833772e-01 1.796477233495237351e-03 0.000000000000000000e+00 0.000000000000000000e+00
9.571000001339345920e-01 1.844157663989784944e-03 0.000000000000000000e+00 0.000000000000000000e+00
9.634651872700409347e-01 1.860525514413665987e-03 0.000000000000000000e+00 0.000000000000000000e+00
9.697902983397413967e-01 1.869026222830578836e-03 0.000000000000000000e+00 0.000000000000000000e+00
9.761731987705594138e-01 1.898719003246270758e-03 0.000000000000000000e+00 0.000000000000000000e+00
9.824546988499620603e-01 1.850375251942234242e-03 0.000000000000000000e+00 0.000000000000000000e+00
9.887603507672997338e-01 1.885371791598095068e-03 0.000000000000000000e+00 0.000000000000000000e+00
9.951547945742836854e-01 1.923480157877882840e-03 0.000000000000000000e+00 0.000000000000000000e+00
1.001497743307979915e+00 1.816985016266823736e-03 0.000000000000000000e+00 0.000000000000000000e+00
1.007730073445106012e+00 1.872875193246743668e-03 0.000000000000000000e+00 0.000000000000000000e+00
1.014110590476311025e+00 1.881534321868284657e-03 0.000000000000000000e+00 0.000000000000000000e+00
1.020442888611849064e+00 1.823625195420996601e-03 0.000000000000000000e+00 0.000000000000000000e+00
1.026691701700078063e+00 1.782759485576686145e-03 0.000000000000000000e+00 0.000000000000000000e+00
1.033057845114525142e+00 1.884320384582664851e-03 0.000000000000000000e+00 0.000000000000000000e+00
1.039437792018165441e+00 1.793463056649077922e-03 0.000000000000000000e+00 0.000000000000000000e+00
1.045681248368910410e+00 1.745618337461533540e-03 0.000000000000000000e+00 0.000000000000000000e+00
1.051944871571292683e+00 1.801987856022948175e-03 0.000000000000000000e+00 0.000000000000000000e+00
1.058324809813473877e+00 1.829265674919061668e-03 0.000000000000000000e+00 0.000000000000000000e+00
1.064596602572098316e+00 1.714864743882408334e-03 0.000000000000000000e+00 0.000000000000000000e+00
1.070868750588993112e+00 1.792957436204007347e-03 0.000000000000000000e+00 0.000000000000000000e+00
1.077195490251847465e+00 1.798916779777443367e-03 0.000000000000000000e+00 0.000000000000000000e+00
1.083505800573759448e+00 1.740543057611223946e-03 0.000000000000000000e+00 0.000000000000000000e+00
1.089676915900379850e+00 1.748165881083384946e-03 0.000000000000000000e+00 0.000000000000000000e+00
1.096052400832523421e+00 1.863573573199493825e-03 0.000000000000000000e+00 0.000000000000000000e+00
1.102364289960501065e+00 1.744372504095847640e-03 0.000000000000000000e+00 0.000000000000000000e+00
1.108625070827478076e+00 1.829094711995288541e-03 0.000000000000000000e+00 0.000000000000000000e+00
1.114924075445366869e+00 1.842999932655674591e-03 0.000000000000000000e+00 0.000000000000000000e+00
1.121282665432693726e+00 1.762017027877181303e-03 0.000000000000000000e+00 0.000000000000000000e+00
1.127553932619258736e+00 1.851826979229859085e-03 0.000000000000000000e+00 0.000000000000000000e+00
1.133905639228342421e+00 1.803927404845938115e-03 0.000000000000000000e+00 0.000000000000000000e+00
1.140144523104706709e+00 1.820967272376473748e-03 0.000000000000000000e+00 0.000000000000000000e+00
1.146455214771981312e+00 1.831860927088285957e-03 7.968127490039840499e-03 1.261130820027441257e-01
1.152869066430118439e+00 1.902391342003174283e-03 5.791505791505791728e-02 4.978299983871661838e-01
1.159252377890596986e+00 1.791659613503928782e-03 5.809128630705394369e-02 5.282273388281895077e-01
1.165575291556828930e+00 1.872439892399787795e-03 3.187250996015936200e-02 3.204633872859000698e-01
1.171828433925186763e+00 1.747387590499659572e-03 4.329004329004329001e-03 6.579516949597702391e-02
1.178029580193284076e+00 1.845903894892485285e-03 0.000000000000000000e+00 0.000000000000000000e+00
1.184400904434957269e+00 1.829516060217846983e-03 0.000000000000000000e+00 0.000000000000000000e+00
1.190737654720273042e+00 1.816225366119703435e-03 0.000000000000000000e+00 0.000000000000000000e+00
1.196977477342464180e+00 1.780548390738201196e-03 0.000000000000000000e+00 0.000000000000000000e+00
1.203312963818603976e+00 1.874247930763579166e-03 0.000000000000000000e+00 0.000000000000000000e+00
1.209645773529357093e+00 1.750259837788138012e-03 0.000000000000000000e+00 0.000000000000000000e+00
1.215952225700388523e+00 1.837678281197498587e-03 0.000000000000000000e+00 0.000000000000000000e+00
1.222254898926581568e+00 1.775628514659025698e-03 0.000000000000000000e+00 0.000000000000000000e+00
1.228537298751265050e+00 1.780223345631782141e-03 0.000000000000000000e+00 0.000000000000000000e+00
1.234759587745337228e+00 1.795376270296014523e-03 0.000000000000000000e+00 0.000000000000000000e+00
1.241110555825225781e+00 1.895169703334604900e-03 0.000000000000000000e+00 0.000000000000000000e+00
1.247523323486311897e+00 1.874537877840588536e-03 0.000000000000000000e+00 0.000000000000000000e+00
1.253854431820907944e+00 1.857283623330970761e-03 0.000000000000000000e+00 0.000000000000000000e+00
1.260138295168494293e+00 1.856490137450314505e-03 0.000000000000000000e+00 0.000000000000000000e+00
1.266501421045549414e+00 1.881588491645209797e-03 0.000000000000000000e+00 0.000000000000000000e+00
1.272807251993681055e+00 1.824447191781883651e-03 0.000000000000000000e+00 0.000000000000000000e+00
1.279100636071537789e+00 1.831925956271344968e-03 0.000000000000000000e+00 0.000000000000000000e+00
1.285385940199903265e+00 1.796864974607813087e-03 0.000000000000000000e+00 0.000000000000000000e+00
1.291734086560349049e+00 1.833790085687247952e-03 0.000000000000000000e+00 0.000000000000000000e+00
1.297999116585571544e+00 1.712347548001254965e-03 0.000000000000000000e+00 0.000000000000000000e+00
1.304332283077917598e+00 1.862331657852500611e-03 0.000000000000000000e+00 0.000000000000000000e+00
1.310629912671008812e+00 1.689758514739712848e-03 0.000000000000000000e+00 0.000000000000000000e+00
1.316859893871710430e+00 1.807323329610554348e-03 0.000000000000000000e+00 0.000000000000000000e+00
1.323169508333509325e+00 1.772103529485381237e-03 0.000000000000000000e+00 0.000000000000000000e+00
1.329416719622044551e+00 1.761213072716576004e-03 0.000000000000000000e+00 0.000000000000000000e+00
1.335676763851219473e+00 1.808340606324402439e-03 0.000000000000000000e+00 0.000000000000000000e+00
1.342102166253144047e+00 1.916040745002256648e-03 0.000000000000000000e+00 0.000000000000000000e+00
1.348432554966731090e+00 1.804515701739407276e-03 0.000000000000000000e+00 0.000000000000000000e+00
1.354697325729501189e+00 1.895450207138361931e-03 0.000000000000000000e+00 0.000000000000000000e+00
1.361035554581970564e+00 1.836151892644552735e-03 0.000000000000000000e+00 0.000000000000000000e+00
1.367445372286436589e+00 1.911657172750392099e-03 0.000000000000000000e+00 0.000000000000000000e+00
1.373833054624600258e+00 1.794265400870382644e-03 0.000000000000000000e+00 0.000000000000000000e+00
1.380048052911932777e+00 1.791287036868802413e-03 0.000000000000000000e+00 0.000000000000000000e+00
1.386332670155489666e+00 1.806335848089170130e-03 0.000000000000000000e+00 0.000000000000000000e+00
1.392624520144640332e+00 1.796075039907524609e-03 0.000000000000000000e+00 0.000000000000000000e+00
1.398923000198597277e+00 1.771229759338340285e-03 0.000000000000000000e+00 0.000000000000000000e+00
1.405184482923453881e+00 1.808998902686751115e-03 0.000000000000000000e+00 0.000000000000000000e+00
1.411475199677901360e+00 1.734371386327675756e-03 0.000000000000000000e+00 0.000000000000000000e+00
1.417706081410672780e+00 1.817237095201347432e-03 0.000000000000000000e+00 0.000000000000000000e+00
1.424046144262549829e+00 1.816956160244514703e-03 0.000000000000000000e+00 0.000000000000000000e+00
1.430457268966005335e+00 1.925855730949348329e-03 0.000000000000000000e+00 0.000000000000000000e+00
1.436865665354877475e+00 1.843763745384080412e-03 0.000000000000000000e+00 0.000000000000000000e+00
1.443084111958556903e+00 1.831535442318516687e-03 0.000000000000000000e+00 0.000000000000000000e+00
1.449466238371406979e+00 1.910439897345804971e-03 0.000000000000000000e+00 0.000000000000000000e+00
1.455780432464144347e+00 1.769262236301017126e-03 0.000000000000000000e+00 0.000000000000000000e+00
1.462109939136078340e+00 1.873282905934200038e-03 0.000000000000000000e+00 0.000000000000000000e+00
1.468414112563870999e+00 1.734923018383166060e-03 0.000000000000000000e+00 0.000000000000000000e+00
1.474680891373796765e+00 1.804015195942032307e-03 2.538071065989847518e-03 5.037927218598775569e-02
1.480924591063775386e+00 1.742163032935032654e-03 0.000000000000000000e+00 0.000000000000000000e+00
1.487138550370334267e+00 1.742602934721402272e-03 0.000000000000000000e+00 0.000000000000000000e+00
1.493462591150057195e+00 1.833511633313982111e-03 0.000000000000000000e+00 0.000000000000000000e+00
1.499809278721849770e+00 1.805357266360340307e-03 0.000000000000000000e+00 0.000000000000000000e+00
1.506175762378094918e+00 1.888906516140883814e-03 0.000000000000000000e+00 0.000000000000000000e+00
1.512543466733061504e+00 1.879653113941155348e-03 0.000000000000000000e+00 0.000000000000000000e+00
1.518927121842702510e+00 1.865813122140227640e-03 0.000000000000000000e+00 0.000000000000000000e+00
1.525176469146275027e+00 1.826629940430822378e-03 0.000000000000000000e+00 0.000000000000000000e+00
1.531416651941075235e+00 1.798854978931840659e-03 0.000000000000000000e+00 0.000000000000000000e+00
1.537728221615372926e+00 1.856986876758172280e-03 0.000000000000000000e+00 0.000000000000000000e+00
1.544096010846849332e+00 1.769518617434322075e-03 0.000000000000000000e+00 0.000000000000000000e+00
1.550405005344789089e+00 1.809055686031393537e-03 0.000000000000000000e+00 0.000000000000000000e+00
1.556696834359960313e+00 1.740139413919524446e-03 0.000000000000000000e+00 0.000000000000000000e+00
1.562969221032702194e+00 1.804120915253569534e-03 0.000000000000000000e+00 0.000000000000000000e+00
1.569251838380229191e+00 1.803338776033149233e-03 0.000000000000000000e+00 0.000000000000000000e+00
1.575556094315494926e+00 1.863019847936644557e-03 0.000000000000000000e+00 0.000000000000000000e+00
1.581892448177514066e+00 1.865480693804838323e-03 0.000000000000000000e+00 0.000000000000000000e+00
1.588269483401412163e+00 1.861295980786164313e-03 0.000000000000000000e+00 0.000000000000000000e+00
1.594574325321363339e+00 1.830133252637398044e-03 0.000000000000000000e+00 0.000000000000000000e+00
1.600916934751582588e+00 1.832077894544300927e-03 0.000000000000000000e+00 0.000000000000000000e+00
1.607201343968552854e+00 1.780442356845074459e-03 0.000000000000000000e+00 0.000000000000000000e+00
1.613445462524496721e+00 1.775524639999344866e-03 0.000000000000000000e+00 0.000000000000000000e+00
1.619730849749851931e+00 1.787630240083115185e-03 0.000000000000000000e+00 0.000000000000000000e+00
1.625979803600224649e+00 1.755895091839796123e-03 0.000000000000000000e+00 0.000000000000000000e+00
1.632226613292544926e+00 1.821174808670054370e-03 0.000000000000000000e+00 0.000000000000000000e+00
1.638606704061473573e+00 1.894452323361247963e-03 0.000000000000000000e+00 0.000000000000000000e+00
1.645050487946952522e+00 1.887301666918968484e-03 0.000000000000000000e+00 0.000000000000000000e+00
1.651415996904310735e+00 1.851783837096881687e-03 0.000000000000000000e+00 0.000000000000000000e+00
1.657788871265904573e+00 1.852242853945953917e-03 0.000000000000000000e+00 0.000000000000000000e+00
1.664006124760511351e+00 1.741113674427757210e-03 0.000000000000000000e+00 0.000000000000000000e+00
1.670281873961185770e+00 1.842366346193471905e-03 0.000000000000000000e+00 0.000000000000000000e+00
1.676541801276667298e+00 1.721555322686186195e-03 0.000000000000000000e+00 0.000000000000000000e+00
1.682793682471841024e+00 1.824670227224382997e-03 0.000000000000000000e+00 0.000000000000000000e+00
1.689107465299970467e+00 1.791603935857043455e-03 0.000000000000000000e+00 0.000000000000000000e+00
1.695415952935033443e+00 1.877357617877282179e-03 0.000000000000000000e+00 0.000000000000000000e+00
1.701806617780016628e+00 1.875253898477295287e-03 0.000000000000000000e+00 0.000000000000000000e+00
1.708145235544118012e+00 1.851238026496159058e-03 0.000000000000000000e+00 0.000000000000000000e+00
1.714469347376187613e+00 1.845626368464784459e-03 0.000000000000000000e+00 0.000000000000000000e+00
1.720739519194126599e+00 1.771881702320935673e-03 0.000000000000000000e+00 0.000000000000000000e+00
1.726990948287859817e+00 1.820993782645452704e-03 0.000000000000000000e+00 0.000000000000000000e+00
1.733361150263370787e+00 1.784216608021570085e-03 0.000000000000000000e+00 0.000000000000000000e+00
1.739571674833123582e+00 1.760427731239605715e-03 6.289308176100629269e-03 7.913872573659080922e-02
1.745887440247851030e+00 1.853392121839796862e-03 1.402805611222444904e-02 1.841180660640221178e-01
1.752250177420427102e+00 1.860925844240075020e-03 6.072874493927125569e-03 7.777073972590527184e-02
1.758607387389414800e+00 1.864192030273802104e-03 0.000000000000000000e+00 0.000000000000000000e+00
1.764972322429467777e+00 1.851098948525789619e-03 0.000000000000000000e+00 0.000000000000000000e+00
1.771273520234028620e+00 1.808016239517707931e-03 0.000000000000000000e+00 0.000000000000000000e+00
1.777586992161852564e+00 1.807004964737956481e-03 0.000000000000000000e+00 0.000000000000000000e+00
1.783840233931820451e+00 1.746107465683986813e-03 0.000000000000000000e+00 0.000000000000000000e+00
1.790071520275328565e+00 1.795583184790444783e-03 0.000000000000000000e+00 0.000000000000000000e+00
1.796393698957722052e+00 1.819993601147859141e-03 0.000000000000000000e+00 0.000000000000000000e+00
1.802712928873270393e+00 1.883216042231023422e-03 0.000000000000000000e+00 0.000000000000000000e+00
1.809114577024696358e+00 1.850157529878445435e-03 0.000000000000000000e+00 0.000000000000000000e+00
1.815345782948464493e+00 1.803540499391122600e-03 0.000000000000000000e+00 0.000000000000000000e+00
1.821700705453981772e+00 1.863872113208649628e-03 0.000000000000000000e+00 0.000000000000000000e+00
1.828034416566336029e+00 1.759461126105644731e-03 0.000000000000000000e+00 0.000000000000000000e+00
1.834289862490237510e+00 1.817049905439401892e-03 0.000000000000000000e+00 0.000000000000000000e+00
1.840620947190598100e+00 1.780340576699249600e-03 0.000000000000000000e+00 0.000000000000000000e+00
1.846876290479544158e+00 1.833628160635640113e-03 0.000000000000000000e+00 0.000000000000000000e+00
1.853225331533147280e+00 1.864396810776891523e-03 0.000000000000000000e+00 0.000000000000000000e+00
1.859586416204100923e+00 1.843230203276794224e-03 0.000000000000000000e+00 0.000000000000000000e+00
1.865884580336470755e+00 1.827085395033201023e-03 0.000000000000000000e+00 0.000000000000000000e+00
1.872200528994375501e+00 1.799198018262535481e-03 0.000000000000000000e+00 0.000000000000000000e+00
1.878453452628845000e+00 1.760356359008985331e-03 0.000000000000000000e+00 0.000000000000000000e+00
1.884712324747962020e+00 1.805687576808031941e-03 0.000000000000000000e+00 0.000000000000000000e+00
1.891113706724730337e+00 1.861939656346446982e-03 0.000000000000000000e+00 0.000000000000000000e+00
1.897400945427566432e+00 1.833350088909791505e-03 0.000000000000000000e+00 0.000000000000000000e+00
1.903772875545957088e+00 1.875180743362649160e-03 0.000000000000000000e+00 0.000000000000000000e+00
1.910018917854334752e+00 1.739883276586547947e-03 0.000000000000000000e+00 0.000000000000000000e+00
1.916236012056648175e+00 1.833205283437960029e-03 0.000000000000000000e+00 0.000000000000000000e+00
1.922638163561010805e+00 1.793373418488206777e-03 0.000000000000000000e+00 0.000000000000000000e+00
1.928888348891847349e+00 1.792288115248428593e-03 3.597122302158273568e-03 5.992205485236567347e-02
1.935240631371640818e+00 1.865766417879262265e-03 1.384083044982699004e-02 1.658735614423096916e-01
1.941608872090050619e+00 1.856644915843207438e-03 7.029876977152899400e-03 1.324297099035814662e-01
1.947917338414854704e+00 1.837601359788319485e-03 3.502626970227670777e-03 5.913114891815797469e-02
1.954236834815996637e+00 1.805754229573221887e-03 0.000000000000000000e+00 0.000000000000000000e+00
1.960488135501994522e+00 1.772905664188001006e-03 0.000000000000000000e+00 0.000000000000000000e+00
1.966755922696415082e+00 1.810201296061439468e-03 0.000000000000000000e+00 0.000000000000000000e+00
1.973091583736556354e+00 1.814240900008777741e-03 0.000000000000000000e+00 0.000000000000000000e+00
1.979420480567132490e+00 1.865397302840512408e-03 0.000000000000000000e+00 0.000000000000000000e+00
1.985762243830389018e+00 1.849873766110382307e-03 0.000000000000000000e+00 0.000000000000000000e+00
1.992143605840229093e+00 1.840662096304069391e-03 0.000000000000000000e+00 0.000000000000000000e+00
1.998372952698491245e+00 1.738412627792555948e-03 0.000000000000000000e+00 0.000000000000000000e+00
2.004614638405731508e+00 1.821010887715033720e-03 0.000000000000000000e+00 0.000000000000000000e+00
2.010981699228176822e+00 1.807963355431743604e-03 0.000000000000000000e+00 0.000000000000000000e+00
2.017216781415232862e+00 1.822968187424302972e-03 0.000000000000000000e+00 0.000000000000000000e+00
2.023555507756473748e+00 1.866836436713831520e-03 0.000000000000000000e+00 0.000000000000000000e+00
2.029945947492921121e+00 1.842053164818473936e-03 0.000000000000000000e+00 0.000000000000000000e+00
2.036236367431154548e+00 1.802040352124230577e-03 0.000000000000000000e+00 0.000000000000000000e+00
2.042538823796997693e+00 1.786279422623429517e-03 0.000000000000000000e+00 0.000000000000000000e+00
2.048720173306640469e+00 1.747373060808409071e-03 0.000000000000000000e+00 0.000000000000000000e+00
2.055017041239767028e+00 1.892889576395914968e-03 0.000000000000000000e+00 0.000000000000000000e+00
2.061465280497128294e+00 1.850343878148330047e-03 0.000000000000000000e+00 0.000000000000000000e+00
2.067778354784032935e+00 1.826644103880053095e-03 0.000000000000000000e+00 0.000000000000000000e+00
2.074107962816127415e+00 1.810449409964311413e-03 0.000000000000000000e+00 0.000000000000000000e+00
2.080392027050733006e+00 1.757304311173108879e-03 0.000000000000000000e+00 0.000000000000000000e+00
2.086560915145909245e+00 1.789004268885935290e-03 0.000000000000000000e+00 0.000000000000000000e+00
2.092907509218693285e+00 1.897916204239676529e-03 0.000000000000000000e+00 0.000000000000000000e+00
2.099341076602548206e+00 1.841856996552926774e-03 0.000000000000000000e+00 0.000000000000000000e+00
2.105598503643897335e+00 1.780460926307301031e-03 0.000000000000000000e+00 0.000000000000000000e+00
2.111872942412509335e+00 1.813036870717739954e-03 0.000000000000000000e+00 0.000000000000000000e+00
2.118179840511383194e+00 1.773074262998883873e-03 0.000000000000000000e+00 0.000000000000000000e+00
2.124489700938873238e+00 1.854176769044688739e-03 0.000000000000000000e+00 0.000000000000000000e+00
2.130866139955553962e+00 1.876679961187130126e-03 0.000000000000000000e+00 0.000000000000000000e+00
2.137196345481136905e+00 1.803165093871285981e-03 0.000000000000000000e+00 0.000000000000000000e+00
2.143477781291089013e+00 1.808033309626025679e-03 0.000000000000000000e+00 0.000000000000000000e+00
2.149749346762158453e+00 1.787076492040512573e-03 0.000000000000000000e+00 0.000000000000000000e+00
2.156014428448592479e+00 1.811767013668930289e-03 0.000000000000000000e+00 0.000000000000000000e+00
2.162388958755252943e+00 1.899773100682969557e-03 0.000000000000000000e+00 0.000000000000000000e+00
2.168776559916051561e+00 1.828625003914755194e-03 0.000000000000000000e+00 0.000000000000000000e+00
2.175079146577416189e+00 1.799027495536281414e-03 0.000000000000000000e+00 0.000000000000000000e+00
2.181358965593887422e+00 1.775037425494343461e-03 0.000000000000000000e+00 0.000000000000000000e+00
2.187625576602315824e+00 1.830837683859201127e-03 0.000000000000000000e+00 0.000000000000000000e+00
2.193923842198696850e+00 1.837507381709080519e-03 0.000000000000000000e+00 0.000000000000000000e+00
2.200310743338333541e+00 1.859271066102410235e-03 0.000000000000000000e+00 0.000000000000000000e+00
2.206637920896229677e+00 1.789161753318371274e-03 0.000000000000000000e+00 0.000000000000000000e+00
2.212855268310565560e+00 1.778695396750237757e-03 0.000000000000000000e+00 0.000000000000000000e+00
2.219155297956861617e+00 1.826812665150635666e-03 0.000000000000000000e+00 0.000000000000000000e+00
2.225534449623195243e+00 1.883537061579874895e-03 0.000000000000000000e+00 0.000000000000000000e+00
2.231816049321749151e+00 1.789850136339156059e-03 0.000000000000000000e+00 0.000000000000000000e+00
2.238124350048766420e+00 1.838516226422660244e-03 0.000000000000000000e+00 0.000000000000000000e+00
2.244461256680506001e+00 1.769483755913013904e-03 0.000000000000000000e+00 0.000000000000000000e+00
2.250672411056880762e+00 1.815340560525242463e-03 0.000000000000000000e+00 0.000000000000000000e+00
2.256976265699253581e+00 1.875232856265233962e-03 0.000000000000000000e+00 0.000000000000000000e+00
2.263404067221236105e+00 1.844596500685106652e-03 0.000000000000000000e+00 0.000000000000000000e+00
2.269740131332425914e+00 1.784620609829179342e-03 0.000000000000000000e+00 0.000000000000000000e+00
2.275928662030326066e+00 1.770462641505800294e-03 0.000000000000000000e+00 0.000000000000000000e+00
2.282234771450446509e+00 1.859120215862977580e-03 0.000000000000000000e+00 0.000000000000000000e+00
2.288651494096741512e+00 1.861574731480084791e-03 0.000000000000000000e+00 0.000000000000000000e+00
2.294929189507614264e+00 1.787386468760323059e-03 0.000000000000000000e+00 0.000000000000000000e+00
2.301123790424945526e+00 1.773889529887621910e-03 0.000000000000000000e+00 0.000000000000000000e+00
2.307427473574251042e+00 1.823767960867003161e-03 0.000000000000000000e+00 0.000000000000000000e+00
2.313824548022820782e+00 1.807223345639351721e-03 0.000000000000000000e+00 0.000000000000000000e+00
2.320154992066300714e+00 1.861695907969135875e-03 0.000000000000000000e+00 0.000000000000000000e+00
2.326479049872378635e+00 1.797363522119922990e-03 0.000000000000000000e+00 0.000000000000000000e+00
2.332811122143054305e+00 1.834923033436536115e-03 0.000000000000000000e+00 0.000000000000000000e+00
2.339146829363451641e+00 1.809933127175767861e-03 0.000000000000000000e+00 0.000000000000000000e+00
2.345346999874724947e+00 1.788822558822959720e-03 0.000000000000000000e+00 0.000000000000000000e+00
2.351591514044208964e+00 1.821961582186779451e-03 0.000000000000000000e+00 0.000000000000000000e+00
2.357940827546205931e+00 1.821480796874143165e-03 0.000000000000000000e+00 0.000000000000000000e+00
2.364269371024037891e+00 1.822839816105960298e-03 0.000000000000000000e+00 0.000000000000000000e+00
2.370575565839220911e+00 1.828742917233826173e-03 0.000000000000000000e+00 0.000000000000000000e+00
2.376891771469677561e+00 1.815523241845057745e-03 0.000000000000000000e+00 0.000000000000000000e+00
2.383240749019818416e+00 1.833462819707767054e-03 0.000000000000000000e+00 0.000000000000000000e+00
2.389601619010945921e+00 1.828185711102788165e-03 0.000000000000000000e+00 0.000000000000000000e+00
2.395961259100775731e+00 1.812604844355751544e-03 0.000000000000000000e+00 0.000000000000000000e+00
2.402160007896914973e+00 1.807533258736503850e-03 0.000000000000000000e+00 0.000000000000000000e+00
2.408453972146052724e+00 1.793232887210479852e-03 0.000000000000000000e+00 0.000000000000000000e+00
2.414771780432101167e+00 1.830638750947721858e-03 0.000000000000000000e+00 0.000000000000000000e+00
2.421058800843912895e+00 1.849123668637423033e-03 0.000000000000000000e+00 0.000000000000000000e+00
2.427397847212681370e+00 1.833909450969152099e-03 0.000000000000000000e+00 0.000000000000000000e+00
2.433701938443864954e+00 1.777285794113256248e-03 0.000000000000000000e+00 0.000000000000000000e+00
2.440001432560962691e+00 1.835928632076300280e-03 0.000000000000000000e+00 0.000000000000000000e+00
2.446276920633820851e+00 1.825543246774167941e-03 0.000000000000000000e+00 0.000000000000000000e+00
2.452612917458465880e+00 1.850886418197054181e-03 0.000000000000000000e+00 0.000000000000000000e+00
2.458937188373468086e+00 1.764090576915684772e-03 0.000000000000000000e+00 0.000000000000000000e+00
2.465235494564519847e+00 1.842465198645606636e-03 0.000000000000000000e+00 0.000000000000000000e+00
2.471581205305689810e+00 1.856761058240425245e-03 0.000000000000000000e+00 0.000000000000000000e+00
2.477865992864338285e+00 1.798850075022648308e-03 0.000000000000000000e+00 0.000000000000000000e+00
2.484122936716935737e+00 1.780971833254360159e-03 0.000000000000000000e+00 0.000000000000000000e+00
2.490467721662181333e+00 1.849468727863495983e-03 0.000000000000000000e+00 0.000000000000000000e+00
2.496849546734450254e+00 1.852734310658727887e-03 0.000000000000000000e+00 0.000000000000000000e+00
2.503105859710241798e+00 1.772860352036017325e-03 0.000000000000000000e+00 0.000000000000000000e+00
2.509322203788900918e+00 1.804578376445024500e-03 0.000000000000000000e+00 0.000000000000000000e+00
2.515643032193938478e+00 1.830400595634155535e-03 0.000000000000000000e+00 0.000000000000000000e+00
2.522012436559997628e+00 1.844427975373299751e-03 0.000000000000000000e+00 0.000000000000000000e+00
2.528376527697731913e+00 1.805263014170996501e-03 0.000000000000000000e+00 0.000000000000000000e+00
2.534662305746367750e+00 1.817191430107880853e-03 0.000000000000000000e+00 0.000000000000000000e+00
2.540923642722284104e+00 1.847774197163838152e-03 0.000000000000000000e+00 0.000000000000000000e+00
2.547222087144660030e+00 1.810867478977307979e-03 0.000000000000000000e+00 0.000000000000000000e+00
2.553540685742163419e+00 1.807658101810726481e-03 0.000000000000000000e+00 0.000000000000000000e+00
2.559925401613222018e+00 1.856915584780679824e-03 0.000000000000000000e+00 0.000000000000000000e+00
2.566280305514876403e+00 1.838802799104265022e-03 0.000000000000000000e+00 0.000000000000000000e+00
2.572544852388987113e+00 1.785952156998167010e-03 0.000000000000000000e+00 0.000000000000000000e+00
2.578799894204640619e+00 1.806472379669163885e-03 0.000000000000000000e+00 0.000000000000000000e+00
2.585123793491197919e+00 1.855120447360665906e-03 0.000000000000000000e+00 0.000000000000000000e+00
2.591472256141813091e+00 1.805120360344933915e-03 0.000000000000000000e+00 0.000000000000000000e+00
2.597744265483155957e+00 1.788819714346394623e-03 0.000000000000000000e+00 0.000000000000000000e+00
2.604038454996993934e+00 1.850630787333012181e-03 0.000000000000000000e+00 0.000000000000000000e+00
2.610374414453144443e+00 1.837105816396599096e-03 0.000000000000000000e+00 0.000000000000000000e+00
2.616634120485421100e+00 1.761050173804210722e-03 0.000000000000000000e+00 0.000000000000000000e+00
2.622940397920966227e+00 1.848634675493098997e-03 0.000000000000000000e+00 0.000000000000000000e+00
2.629323187355575353e+00 1.839581463337864892e-03 0.000000000000000000e+00 0.000000000000000000e+00
2.635681273538560632e+00 1.815290224604702678e-03 0.000000000000000000e+00 0.000000000000000000e+00
2.641934789831782204e+00 1.778405014700361417e-03 0.000000000000000000e+00 0.000000000000000000e+00
2.648176773767660031e+00 1.853093332118325998e-03 0.000000000000000000e+00 0.000000000000000000e+00
2.654514065851063087e+00 1.823524830511773481e-03 0.000000000000000000e+00 0.000000000000000000e+00
2.660817448321032508e+00 1.798052776896779401e-03 0.000000000000000000e+00 0.000000000000000000e+00
2.667123571907564994e+00 1.844852426740933296e-03 0.000000000000000000e+00 0.000000000000000000e+00
2.673472329675100401e+00 1.839448802019330543e-03 0.000000000000000000e+00 0.000000000000000000e+00
2.679761377760365715e+00 1.786299887381436651e-03 0.000000000000000000e+00 0.000000000000000000e+00
2.686129035698236578e+00 1.877272974428747035e-03 0.000000000000000000e+00 0.000000000000000000e+00
2.692300573720700196e+00 1.798376592015874225e-03 0.000000000000000000e+00 0.000000000000000000e+00
2.698561328278970439e+00 1.798779619418457414e-03 0.000000000000000000e+00 0.000000000000000000e+00
2.704947056964875252e+00 1.860594623228957294e-03 0.000000000000000000e+00 0.000000000000000000e+00
2.711339925705444909e+00 1.826229981736538378e-03 0.000000000000000000e+00 0.000000000000000000e+00
2.717643416720191052e+00 1.774618570520191145e-03 0.000000000000000000e+00 0.000000000000000000e+00
2.723934694222051256e+00 1.823763048442502126e-03 0.000000000000000000e+00 0.000000000000000000e+00
2.730274673678132036e+00 1.841398355898408350e-03 0.000000000000000000e+00 0.000000000000000000e+00
2.736591263199737778e+00 1.788312012670147501e-03 0.000000000000000000e+00 0.000000000000000000e+00
2.742885231028380222e+00 1.844652457607765493e-03 0.000000000000000000e+00 0.000000000000000000e+00
2.749161241756704843e+00 1.804773587711254630e-03 0.000000000000000000e+00 0.000000000000000000e+00
2.755398232824302962e+00 1.776157869081165970e-03 0.000000000000000000e+00 0.000000000000000000e+00
2.761751565609168679e+00 1.857903093933079139e-03 0.000000000000000000e+00 0.000000000000000000e+00
2.768124311574730267e+00 1.813883183384283311e-03 0.000000000000000000e+00 0.000000000000000000e+00
2.774423663616722546e+00 1.776295681999270643e-03 0.000000000000000000e+00 0.000000000000000000e+00
2.780754869867226198e+00 1.842436817654598789e-03 0.000000000000000000e+00 0.000000000000000000e+00
2.787077464795406190e+00 1.805278297034774168e-03 0.000000000000000000e+00 0.000000000000000000e+00
2.793346642012575654e+00 1.793644434711254678e-03 0.000000000000000000e+00 0.000000000000000000e+00
2.799634253246212179e+00 1.838111547031318375e-03 0.000000000000000000e+00 0.000000000000000000e+00
2.805924842988945844e+00 1.808245895551135627e-03 0.000000000000000000e+00 0.000000000000000000e+00
2.812167973206011862e+00 1.789098639402584082e-03 0.000000000000000000e+00 0.000000000000000000e+00
2.818496662748549042e+00 1.874446068014908040e-03 0.000000000000000000e+00 0.000000000000000000e+00
2.824858807967614460e+00 1.791571154666717633e-03 0.000000000000000000e+00 0.000000000000000000e+00
2.831150482550185643e+00 1.815112775054883139e-03 0.000000000000000000e+00 0.000000000000000000e+00
2.837475400148095517e+00 1.850316795954077458e-03 0.000000000000000000e+00 0.000000000000000000e+00
2.843805018276897911e+00 1.786824753329564535e-03 0.000000000000000000e+00 0.000000000000000000e+00
2.850131561922547352e+00 1.845583173970813699e-03 0.000000000000000000e+00 0.000000000000000000e+00
2.856484494638581229e+00 1.841115527677602507e-03 0.000000000000000000e+00 0.000000000000000000e+00
2.862782859862781137e+00 1.780809355167121575e-03 0.000000000000000000e+00 0.000000000000000000e+00
2.869068523143336158e+00 1.847699945098150954e-03 0.000000000000000000e+00 0.000000000000000000e+00
2.875378514069953706e+00 1.802909528894259443e-03 0.000000000000000000e+00 0.000000000000000000e+00
2.881671995666307051e+00 1.819305449905813353e-03 0.000000000000000000e+00 0.000000000000000000e+00
2.887980092673573917e+00 1.848812746508326317e-03 0.000000000000000000e+00 0.000000000000000000e+00
2.894292086458025270e+00 1.795011172749967111e-03 0.000000000000000000e+00 0.000000000000000000e+00
2.900588101801901963e+00 1.834444505730529681e-03 0.000000000000000000e+00 0.000000000000000000e+00
2.906894294921833044e+00 1.834235081131648307e-03 0.000000000000000000e+00 0.000000000000000000e+00
2.913143215321425394e+00 1.775388414920497622e-03 0.000000000000000000e+00 0.000000000000000000e+00
2.919469846096636179e+00 1.902110692867622259e-03 0.000000000000000000e+00 0.000000000000000000e+00
2.925831071463227850e+00 1.799019204260941503e-03 0.000000000000000000e+00 0.000000000000000000e+00
2.932125236913744715e+00 1.849572311535908030e-03 0.000000000000000000e+00 0.000000000000000000e+00
2.938426190430696305e+00 1.829943172517629413e-03 0.000000000000000000e+00 0.000000000000000000e+00
2.944698497868602605e+00 1.792371922793937686e-03 0.000000000000000000e+00 0.000000000000000000e+00
2.951032364443879619e+00 1.872648010744969562e-03 0.000000000000000000e+00 0.000000000000000000e+00
2.957349976869245278e+00 1.772646084934545842e-03 0.000000000000000000e+00 0.000000000000000000e+00
2.963641534615172990e+00 1.843499637433317897e-03 0.000000000000000000e+00 0.000000000000000000e+00
2.969974563050315375e+00 1.835483252247156055e-03 0.000000000000000000e+00 0.000000000000000000e+00
2.976261971728969780e+00 1.784595762971840369e-03 0.000000000000000000e+00 0.000000000000000000e+00
2.982555079221103078e+00 1.856376802478345786e-03 0.000000000000000000e+00 0.000000000000000000e+00
2.988860230475899549e+00 1.767956570045068222e-03 0.000000000000000000e+00 0.000000000000000000e+00
2.995178874680174186e+00 1.856934622757372335e-03 0.000000000000000000e+00 0.000000000000000000e+00
3.001496400543723020e+00 1.797819739674591305e-03 0.000000000000000000e+00 0.000000000000000000e+00
3.007822553902104179e+00 1.849516356328991537e-03 0.000000000000000000e+00 0.000000000000000000e+00
3.014155913686516808e+00 1.844070628166239031e-03 0.000000000000000000e+00 0.000000000000000000e+00
3.020427983220980828e+00 1.780401570183770890e-03 0.000000000000000000e+00 0.000000000000000000e+00
3.026726854870708916e+00 1.864734463497724846e-03 0.000000000000000000e+00 0.000000000000000000e+00
3.033042693621903041e+00 1.790509691971886499e-03 0.000000000000000000e+00 0.000000000000000000e+00
3.039417687211595442e+00 1.892848977299335135e-03 0.000000000000000000e+00 0.000000000000000000e+00
3.045771113053035606e+00 1.809002971513908259e-03 0.000000000000000000e+00 0.000000000000000000e+00
3.052089874155329063e+00 1.844438578281415919e-03 0.000000000000000000e+00 0.000000000000000000e+00
3.058386304167925118e+00 1.824217551217444024e-03 0.000000000000000000e+00 0.000000000000000000e+00
3.064635661305841197e+00 1.781811879387494579e-03 0.000000000000000000e+00 0.000000000000000000e+00
3.070942258104439215e+00 1.879278577764203085e-03 0.000000000000000000e+00 0.000000000000000000e+00
3.077306102136554866e+00 1.789896323379901438e-03 0.000000000000000000e+00 0.000000000000000000e+00
3.083610248093582751e+00 1.842323938384468965e-03 0.000000000000000000e+00 0.000000000000000000e+00
3.089899276602742884e+00 1.781295098450355954e-03 0.000000000000000000e+00 0.000000000000000000e+00
3.096219282790054539e+00 1.849962857272845727e-03 0.000000000000000000e+00 0.000000000000000000e+00
3.102516781183005889e+00 1.793151767743564459e-03 0.000000000000000000e+00 0.000000000000000000e+00
3.108846425703184035e+00 1.844538984569745127e-03 0.000000000000000000e+00 0.000000000000000000e+00
3.115155056293756886e+00 1.812510444856532069e-03 0.000000000000000000e+00 0.000000000000000000e+00
3.121484332076036150e+00 1.832521331068808152e-03 0.000000000000000000e+00 0.000000000000000000e+00
3.127777573742708483e+00 1.818133687887086257e-03 0.000000000000000000e+00 0.000000000000000000e+00
3.134074710556275623e+00 1.800750836428910992e-03 0.000000000000000000e+00 0.000000000000000000e+00
3.140350968701055567e+00 1.840082388152106639e-03 0.000000000000000000e+00 0.000000000000000000e+00
3.146669598331559570e+00 1.795769837056059460e-03 0.000000000000000000e+00 0.000000000000000000e+00
3.152959210157879166e+00 1.842768641532451131e-03 0.000000000000000000e+00 0.000000000000000000e+00
3.159264892205651432e+00 1.791857333635609589e-03 0.000000000000000000e+00 0.000000000000000000e+00
3.165581888857809112e+00 1.858342078644047027e-03 0.000000000000000000e+00 0.000000000000000000e+00
3.171905560319084216e+00 1.782720971754531017e-03 0.000000000000000000e+00 0.000000000000000000e+00
3.178180461481988406e+00 1.828434529921516482e-03 0.000000000000000000e+00 0.000000000000000000e+00
3.184506679420991304e+00 1.810619157308176325e-03 0.000000000000000000e+00 0.000000000000000000e+00
3.190846230582273346e+00 1.831490456789015321e-03 0.000000000000000000e+00 0.000000000000000000e+00
3.197132365687451294e+00 1.780884113596707067e-03 0.000000000000000000e+00 0.000000000000000000e+00
3.203454230992797136e+00 1.862619862555806765e-03 0.000000000000000000e+00 0.000000000000000000e+00
3.209790152929830498e+00 1.796864404628749357e-03 0.000000000000000000e+00 0.000000000000000000e+00
3.216105270782768422e+00 1.849581865447865814e-03 0.000000000000000000e+00 0.000000000000000000e+00
3.222383723154825574e+00 1.773184836801974633e-03 0.000000000000000000e+00 0.000000000000000000e+00
3.228652903688512765e+00 1.829814433570467642e-03 0.000000000000000000e+00 0.000000000000000000e+00
3.234977992221026444e+00 1.801123950508762587e-03 0.000000000000000000e+00 0.000000000000000000e+00
3.241301441286830176e+00 1.830570155328411054e-03 0.000000000000000000e+00 0.000000000000000000e+00
3.247581817024004280e+00 1.774748969754167847e-03 0.000000000000000000e+00 0.000000000000000000e+00
3.253885986942128827e+00 1.868811343678552150e-03 0.000000000000000000e+00 0.000000000000000000e+00
3.260235987169183947e+00 1.804603356501592029e-03 0.000000000000000000e+00 0.000000000000000000e+00
3.266546856392692710e+00 1.857627301288636550e-03 0.000000000000000000e+00 0.000000000000000000e+00
3.272886904023045052e+00 1.792569475559808913e-03 0.000000000000000000e+00 0.000000000000000000e+00
3.279153478698136670e+00 1.837211362056317054e-03 0.000000000000000000e+00 0.000000000000000000e+00
3.285516195699416553e+00 1.819318898053023329e-03 0.000000000000000000e+00 0.000000000000000000e+00
3.291677990232397821e+00 1.824817096246810931e-03 0.000000000000000000e+00 0.000000000000000000e+00
3.298068987764390059e+00 1.863784166448585874e-03 0.000000000000000000e+00 0.000000000000000000e+00
3.304430978840338096e+00 1.814787339162488022e-03 0.000000000000000000e+00 0.000000000000000000e+00
3.310737564052387061e+00 1.817945227602999880e-03 0.000000000000000000e+00 0.000000000000000000e+00
3.317033906120231190e+00 1.800198345421728579e-03 0.000000000000000000e+00 0.000000000000000000e+00
3.323313479518194669e+00 1.810036704891648416e-03 0.000000000000000000e+00 0.000000000000000000e+00
3.329645772824664451e+00 1.853775369266378323e-03 0.000000000000000000e+00 0.000000000000000000e+00
3.335990548707715053e+00 1.826590486813650920e-03 0.000000000000000000e+00 0.000000000000000000e+00
3.342268739174953929e+00 1.807641793864574143e-03 0.000000000000000000e+00 0.000000000000000000e+00
3.348554594221377023e+00 1.807536448754866812e-03 0.000000000000000000e+00 0.000000000000000000e+00
3.354810866618635590e+00 1.798386852034845364e-03 0.000000000000000000e+00 0.000000000000000000e+00
3.361143554435736203e+00 1.860575678898459748e-03 0.000000000000000000e+00 0.000000000000000000e+00
3.367505271257411170e+00 1.829077091643749146e-03 0.000000000000000000e+00 0.000000000000000000e+00
3.373804785089639324e+00 1.803149868685275390e-03 0.000000000000000000e+00 0.000000000000000000e+00
3.380079784639911100e+00 1.805631642174917659e-03 0.000000000000000000e+00 0.000000000000000000e+00
3.386416571036835244e+00 1.843579116849991192e-03 0.000000000000000000e+00 0.000000000000000000e+00
3.392732849186819166e+00 1.821713749179523084e-03 0.000000000000000000e+00 0.000000000000000000e+00
3.399077842768783331e+00 1.840157085703132342e-03 0.000000000000000000e+00 0.000000000000000000e+00
3.405368445234043140e+00 1.771416845865005909e-03 0.000000000000000000e+00 0.000000000000000000e+00
3.411642977450664915e+00 1.840004348347408980e-03 0.000000000000000000e+00 0.000000000000000000e+00
3.417946432239648225e+00 1.816648589106147462e-03 0.000000000000000000e+00 0.000000000000000000e+00
3.424268333461439884e+00 1.838339958730071926e-03 0.000000000000000000e+00 0.000000000000000000e+00
3.430601598134079389e+00 1.799761940178920376e-03 0.000000000000000000e+00 0.000000000000000000e+00
3.436922606236269218e+00 1.844213366763177700e-03 0.000000000000000000e+00 0.000000000000000000e+00
3.443269856433799347e+00 1.834668830692703879e-03 0.000000000000000000e+00 0.000000000000000000e+00
3.449516618902171317e+00 1.769622948488585408e-03 0.000000000000000000e+00 0.000000000000000000e+00
3.455771942280530862e+00 1.817195070858158281e-03 0.000000000000000000e+00 0.000000000000000000e+00
3.462154010515302804e+00 1.866018191136946868e-03 0.000000000000000000e+00 0.000000000000000000e+00
3.468478914699885340e+00 1.799468636805881495e-03 0.000000000000000000e+00 0.000000000000000000e+00
3.474737530089159865e+00 1.798535080277152308e-03 0.000000000000000000e+00 0.000000000000000000e+00
3.481027808853469629e+00 1.828779808500339806e-03 0.000000000000000000e+00 0.000000000000000000e+00
3.487370903609774420e+00 1.855504762412056021e-03 0.000000000000000000e+00 0.000000000000000000e+00
3.493710577164840458e+00 1.791815171782784382e-03 0.000000000000000000e+00 0.000000000000000000e+00
3.499981309375833849e+00 1.817721919481020843e-03 0.000000000000000000e+00 0.000000000000000000e+00
3.506294281862427642e+00 1.840208171226962808e-03 0.000000000000000000e+00 0.000000000000000000e+00
3.512643170548069183e+00 1.819719049123772565e-03 0.000000000000000000e+00 0.000000000000000000e+00
3.518887929185086527e+00 1.780316295825717758e-03 0.000000000000000000e+00 0.000000000000000000e+00
3.525201780775713889e+00 1.871585280235478531e-03 0.000000000000000000e+00 0.000000000000000000e+00
3.531587235286628879e+00 1.812415240060859375e-03 0.000000000000000000e+00 0.000000000000000000e+00
3.537791204901774123e+00 1.765649031450039182e-03 0.000000000000000000e+00 0.000000000000000000e+00
3.544104483213670331e+00 1.881636984785636617e-03 0.000000000000000000e+00 0.000000000000000000e+00
3.550526160049383151e+00 1.823753900979235669e-03 0.000000000000000000e+00 0.000000000000000000e+00
3.556826252644191833e+00 1.805941154371571225e-03 0.000000000000000000e+00 0.000000000000000000e+00
3.563110991539715666e+00 1.831382697511484874e-03 0.000000000000000000e+00 0.000000000000000000e+00
3.569418747584309326e+00 1.819035597463529485e-03 0.000000000000000000e+00 0.000000000000000000e+00
3.575721219182565580e+00 1.815191134896390569e-03 0.000000000000000000e+00 0.000000000000000000e+00
3.582041784633743120e+00 1.836067019019354488e-03 0.000000000000000000e+00 0.000000000000000000e+00
3.588351193306853926e+00 1.816205673054769026e-03 0.000000000000000000e+00 0.000000000000000000e+00
3.594644124218077774e+00 1.816162507538995278e-03 0.000000000000000000e+00 0.000000000000000000e+00
3.600965899690116157e+00 1.832434222657099978e-03 0.000000000000000000e+00 0.000000000000000000e+00
3.607301933810233674e+00 1.823864462282996299e-03 0.000000000000000000e+00 0.000000000000000000e+00
3.613589615564896995e+00 1.801875725405921403e-03 0.000000000000000000e+00 0.000000000000000000e+00
3.619872304563952703e+00 1.819848024125704684e-03 0.000000000000000000e+00 0.000000000000000000e+00
3.626184481674183946e+00 1.827760715362539709e-03 0.000000000000000000e+00 0.000000000000000000e+00
3.632455309189269510e+00 1.797655079431180383e-03 0.000000000000000000e+00 0.000000000000000000e+00
3.638754857574894697e+00 1.841922947680418475e-03 0.000000000000000000e+00 0.000000000000000000e+00
3.645110863435991444e+00 1.833895812584415653e-03 0.000000000000000000e+00 0.000000000000000000e+00
3.651399341121458253e+00 1.797724079201825547e-03 0.000000000000000000e+00 0.000000000000000000e+00
3.657684783062496781e+00 1.823089633617003442e-03 0.000000000000000000e+00 0.000000000000000000e+00
3.663989311092172851e+00 1.817352227903809700e-03 0.000000000000000000e+00 0.000000000000000000e+00
3.670338462676961733e+00 1.852037082036360515e-03 0.000000000000000000e+00 0.000000000000000000e+00
3.676667454351053799e+00 1.802731285318214709e-03 0.000000000000000000e+00 0.000000000000000000e+00
3.682957402673964431e+00 1.831301914300888494e-03 0.000000000000000000e+00 0.000000000000000000e+00
3.689264510226057059e+00 1.810576500315507495e-03 0.000000000000000000e+00 0.000000000000000000e+00
3.695607159299667099e+00 1.851070780809128090e-03 0.000000000000000000e+00 0.000000000000000000e+00
3.701906411334345837e+00 1.786914693256676148e-03 0.000000000000000000e+00 0.000000000000000000e+00
3.708163258087520564e+00 1.825159420261267002e-03 0.000000000000000000e+00 0.000000000000000000e+00
3.714507337749332283e+00 1.833043865117713490e-03 0.000000000000000000e+00 0.000000000000000000e+00
3.720870273368275249e+00 1.842023606415223082e-03 0.000000000000000000e+00 0.000000000000000000e+00
3.727157013165883104e+00 1.785929560704693081e-03 0.000000000000000000e+00 0.000000000000000000e+00
3.733414267292576749e+00 1.823616893326991065e-03 0.000000000000000000e+00 0.000000000000000000e+00
3.739747614563589284e+00 1.832601406324968355e-03 0.000000000000000000e+00 0.000000000000000000e+00
3.746091684029914770e+00 1.828992002129592063e-03 0.000000000000000000e+00 0.000000000000000000e+00
3.752406222021260618e+00 1.812401454337024109e-03 0.000000000000000000e+00 0.000000000000000000e+00
3.758712131096641595e+00 1.823143945980814458e-03 0.000000000000000000e+00 0.000000000000000000e+00
3.765000355804634324e+00 1.809969724265664184e-03 0.000000000000000000e+00 0.000000000000000000e+00
3.771324791207556704e+00 1.846593531196991230e-03 0.000000000000000000e+00 0.000000000000000000e+00
3.777640884128447674e+00 1.800430178895984180e-03 0.000000000000000000e+00 0.000000000000000000e+00
3.783890033752419058e+00 1.812352582976840126e-03 0.000000000000000000e+00 0.000000000000000000e+00
3.790205950757557840e+00 1.839564216382759279e-03 0.000000000000000000e+00 0.000000000000000000e+00
3.796547481197723339e+00 1.823144808823023381e-03 0.000000000000000000e+00 0.000000000000000000e+00
3.802839460639445335e+00 1.822115437231795494e-03 0.000000000000000000e+00 0.000000000000000000e+00
3.809162628389719529e+00 1.835235423465040759e-03 0.000000000000000000e+00 0.000000000000000000e+00
3.815477698903783743e+00 1.813833779597889004e-03 0.000000000000000000e+00 0.000000000000000000e+00
3.821777178949230969e+00 1.830898415393102585e-03 0.000000000000000000e+00 0.000000000000000000e+00
3.828076951026545771e+00 1.795694771849016581e-03 0.000000000000000000e+00 0.000000000000000000e+00
3.834316772867639944e+00 1.791896653628349866e-03 0.000000000000000000e+00 0.000000000000000000e+00
3.840583618544390898e+00 1.820001018717854217e-03 0.000000000000000000e+00 0.000000000000000000e+00
3.846911872181034475e+00 1.824281646184678762e-03 0.000000000000000000e+00 0.000000000000000000e+00
3.853313008086272973e+00 1.880829953221405115e-03 0.000000000000000000e+00 0.000000000000000000e+00
3.859656947796285653e+00 1.787945514535103963e-03 0.000000000000000000e+00 0.000000000000000000e+00
3.865825284683709118e+00 1.773175751446867720e-03 0.000000000000000000e+00 0.000000000000000000e+00
3.872064552013789740e+00 1.858490478498285668e-03 0.000000000000000000e+00 0.000000000000000000e+00
3.878243048288448236e+00 1.738115315901965106e-03 0.000000000000000000e+00 0.000000000000000000e+00
3.884441558101385361e+00 1.990091083924331716e-03 0.000000000000000000e+00 0.000000000000000000e+00
