# q qerr I(q) I(q)err
8.294532032279089417e-03 3.215448162638725495e-03 0.000000000000000000e+00 1.567093587800412857e+00
1.547771440847061503e-02 1.298069176105710962e-03 0.000000000000000000e+00 0.000000000000000000e+00
2.114153426598287117e-02 1.953452460535632252e-03 0.000000000000000000e+00 0.000000000000000000e+00
2.708829541553820289e-02 1.932501425123600049e-03 0.000000000000000000e+00 0.000000000000000000e+00
3.424760286937652415e-02 2.393094809829984012e-03 0.000000000000000000e+00 0.000000000000000000e+00
4.134659872356089005e-02 1.444308516548141333e-03 0.000000000000000000e+00 0.000000000000000000e+00
4.709622292726145520e-02 1.633576272088444088e-03 0.000000000000000000e+00 0.000000000000000000e+00
5.289360403025952090e-02 1.994215660312892175e-03 0.000000000000000000e+00 0.000000000000000000e+00
5.941266175682404643e-02 2.038777625163953021e-03 0.000000000000000000e+00 0.000000000000000000e+00
6.623959740571712385e-02 2.014614798769268252e-03 0.000000000000000000e+00 0.000000000000000000e+00
7.251770781946841049e-02 1.767162065969994948e-03 0.000000000000000000e+00 0.000000000000000000e+00
7.836204892921720677e-02 1.794558473909566021e-03 1.040000000000000036e+00 3.535420767037495970e+00
8.476368586159346852e-02 2.173163639586968114e-03 1.285937500000000000e+01 4.391835353634912309e+01
9.171767809022127182e-02 2.151270969520740432e-03 1.082058823529411740e+02 2.866620608150416274e+02
9.840741527280037759e-02 1.879523288412654567e-03 3.310833333333333144e+02 7.686216414971528366e+02
1.046713563714864598e-01 1.717715818177843919e-03 5.877599999999999909e+02 1.074594964440090735e+03
1.108696467093386595e-01 1.978629817275711061e-03 4.579245283018867667e+02 7.800372707912259784e+02
1.174911181025048434e-01 2.151142134119994175e-03 2.266065573770491710e+02 3.760150669272471191e+02
1.240901985761322518e-01 1.682567093931450772e-03 1.115999999999999943e+02 1.561997183096051458e+02
1.302695169190241364e-01 1.981638030988197227e-03 6.033898305084746028e+01 8.069145664164035736e+01
1.366843399328758479e-01 1.885635125754002352e-03 5.430357142857143060e+01 6.483717833062718228e+01
1.431380625310322841e-01 2.037281709542672608e-03 4.875806451612903203e+01 5.666712778576334841e+01
1.497407916800755912e-01 2.013243134106564892e-03 4.844444444444444287e+01 5.439391889447213657e+01
1.560440161600273323e-01 1.800320108738214832e-03 4.750877192982456165e+01 5.199624723063733001e+01
1.626324968867556287e-01 2.166758397174068339e-03 4.840540540540540349e+01 4.996731948784709232e+01
1.693678508908615654e-01 1.711853084056604935e-03 4.976666666666666572e+01 5.172789382915179601e+01
1.755753172360756398e-01 1.940749690505284321e-03 5.318840579710145278e+01 5.147811398333920607e+01
1.819629297477835528e-01 1.792019476258344991e-03 5.721538461538461462e+01 5.540677548126012653e+01
1.883474920212158954e-01 1.982820530303366913e-03 6.698611111111111427e+01 6.523376471308378655e+01
1.949500334927739553e-01 1.985593967279970003e-03 1.198266666666666680e+02 1.090777443437070104e+02
2.014306324154557237e-01 1.750557958225071797e-03 2.556376811594202820e+02 2.302796529147198328e+02
2.076332073357673447e-01 1.865361520913360683e-03 4.370540540540540633e+02 3.611598964192901349e+02
2.140129245322099916e-01 1.882829286684015863e-03 4.183333333333333144e+02 3.625455373696753441e+02
2.204163405633874917e-01 1.951475208267544961e-03 2.616923076923076792e+02 2.262916857104924020e+02
2.268599176829277919e-01 1.954094669929957399e-03 1.193125000000000000e+02 1.080342827532075631e+02
2.335135695299082048e-01 1.986313139076756155e-03 7.357647058823529562e+01 6.379621318392649698e+01
2.400224779461884173e-01 1.823737618079871109e-03 6.542499999999999716e+01 5.358136044838726519e+01
2.464005577519743639e-01 1.894426896505377799e-03 6.361176470588235077e+01 5.095532068275454662e+01
2.528350385827773383e-01 1.829527638271931031e-03 6.407142857142856940e+01 5.052175896830691926e+01
2.590859102888302123e-01 1.817056121189442432e-03 6.351190476190475920e+01 5.024304026666872147e+01
2.654612130450557106e-01 1.918447197659697845e-03 6.350561797752808957e+01 5.027829884684303607e+01
2.718942366720529247e-01 1.942478483450333455e-03 6.595604395604395620e+01 4.954937377985323366e+01
2.784185743669774227e-01 1.921358219378808702e-03 6.521505376344086358e+01 5.094155558863769073e+01
2.849156375412667530e-01 1.882334819595186037e-03 6.970212765957447232e+01 5.075047025273460122e+01
2.911870294677750826e-01 1.766712284927822799e-03 7.146067415730337302e+01 5.155749196680178414e+01
2.976511517037133681e-01 2.019527329980297554e-03 8.753398058252426495e+01 5.123306398344229251e+01
3.043178155919494809e-01 1.919359421117726450e-03 1.467500000000000000e+02 6.170684726997482983e+01
3.108074081907638564e-01 1.815555258398614735e-03 3.066938775510204209e+02 7.934319089158172744e+01
3.170970610330232087e-01 1.826000353424227750e-03 4.778282828282828518e+02 5.084755480061063082e+01
3.235319739834495723e-01 1.908097576542081529e-03 4.537238095238095070e+02 5.018069390528917495e+01
3.300700059726238145e-01 1.867687188749142220e-03 2.671132075471697931e+02 6.122135485092468343e+01
3.365262003550894554e-01 1.808122422876843900e-03 1.371904761904762040e+02 3.477127727530308476e+01
3.429039324965278412e-01 1.810371451943152679e-03 9.729245283018867951e+01 2.800963890949886093e+01
3.492243179790229801e-01 1.835371710213073819e-03 8.743518518518519045e+01 2.685212962819286631e+01
3.555659880086458058e-01 1.813249007222180170e-03 8.444444444444444287e+01 2.600269058569657332e+01
3.620245372922214488e-01 1.918012235727336494e-03 8.371794871794871540e+01 2.470084434980411459e+01
3.685406119477664388e-01 1.798147481859587110e-03 8.283783783783783861e+01 2.417651285947406592e+01
3.750909242308860247e-01 1.967614233492519498e-03 8.413709677419355160e+01 2.270334749575505384e+01
3.816999037813160189e-01 1.752662604176019427e-03 8.386086956521738500e+01 2.193461326258583100e+01
3.880273799716012495e-01 1.749306826939258557e-03 8.370689655172414234e+01 2.073472461823533664e+01
3.942361145945514900e-01 1.745527907058957431e-03 8.326724137931034875e+01 1.979680894666784496e+01
4.006128291384035145e-01 1.852638254231622501e-03 8.457723577235772439e+01 1.861693291130043804e+01
4.070503578694664726e-01 1.848743254130127446e-03 9.003225806451612812e+01 1.860842317638284982e+01
4.135933781829447264e-01 1.871256654943844995e-03 1.133178294573643399e+02 2.260913014823286105e+01
4.202179442533061082e-01 1.832712641984981681e-03 1.724076923076923151e+02 2.751919609738180128e+01
4.266798115557093873e-01 1.759393680741872749e-03 2.224960629921259851e+02 1.537772294420490304e+01
4.330910535146235696e-01 1.771858374752960505e-03 1.957769230769230830e+02 1.909980017863813373e+01
4.395078467689783608e-01 1.772659720438770270e-03 1.323257575757575637e+02 1.874657911860555615e+01
4.457793319829173595e-01 1.654526338047628432e-03 9.559199999999999875e+01 1.321326121742849757e+01
4.521562795609589402e-01 1.887763445894669913e-03 8.471830985915492818e+01 1.226108314501255059e+01
4.587656575942579140e-01 1.769717907920350091e-03 8.081021897810218491e+01 1.198170013173336024e+01
4.652405449529313231e-01 1.746242423612376143e-03 7.973381294964028143e+01 1.140266436493358349e+01
4.716282944699034529e-01 1.704407088516023735e-03 7.879562043795620241e+01 1.075170093238373958e+01
4.780637153179891352e-01 1.798647074538550902e-03 7.781250000000000000e+01 1.005876828664645473e+01
4.844976548260259142e-01 1.723433333189145671e-03 7.714084507042252881e+01 9.316169475045009918e+00
4.908596034113225648e-01 1.665744062354685903e-03 7.604964539007092128e+01 8.742454549134638597e+00
4.972011979785150859e-01 1.734256865849588200e-03 7.584246575342466201e+01 7.967923354902706201e+00
5.036178995103413047e-01 1.747915368961153139e-03 7.555405405405404906e+01 7.274595568595725759e+00
5.101756467004687767e-01 1.800451491856020327e-03 7.687096774193548754e+01 7.563191988103130647e+00
5.166235656727934389e-01 1.648057805296297825e-03 8.229931972789115946e+01 8.440721368606689978e+00
5.229884928033705638e-01 1.714260039451578075e-03 1.053486842105263150e+02 1.355201199401301437e+01
5.293925748937229336e-01 1.756900675637705763e-03 1.540833333333333428e+02 1.690433110940536920e+01
5.357749724968067229e-01 1.647361260156582873e-03 1.871721854304635713e+02 6.979010804988655892e+00
5.422269581426349960e-01 1.797131621318817348e-03 1.577804878048780495e+02 1.621762780177650498e+01
5.488258977193463117e-01 1.752106618123457169e-03 1.065403726708074572e+02 1.227341922885168657e+01
5.552607346015674405e-01 1.711536068502800701e-03 8.063124999999999432e+01 5.918126287094592541e+00
5.616696921416424182e-01 1.713298320607429745e-03 7.254601226993865737e+01 4.375721444632270085e+00
5.680596363279470928e-01 1.671719726027721563e-03 7.042499999999999716e+01 4.209754298055885080e+00
5.744116486855085357e-01 1.773350792090137981e-03 6.950595238095237960e+01 4.520785330006280134e+00
5.808465417437830292e-01 1.706594120505047427e-03 6.842424242424242209e+01 4.833423576624997331e+00
5.872915480827241019e-01 1.773275249674210931e-03 6.732947976878612906e+01 4.933985675021542505e+00
5.936297343998458986e-01 1.608871723183330060e-03 6.652469135802469680e+01 4.439529175018343210e+00
6.000917821228005655e-01 1.852508397134843563e-03 6.620329670329670080e+01 3.764847032691729822e+00
6.066068710033430955e-01 1.719733697199352486e-03 6.588304093567251130e+01 3.617326611022782412e+00
6.129319261090041548e-01 1.700305612135823196e-03 6.544186046511627808e+01 3.304208438013380267e+00
6.193292159447265632e-01 1.792945791870086646e-03 6.522777777777777430e+01 3.337404920733813007e+00
6.257789288608107681e-01 1.769335618302108433e-03 6.738418079096045687e+01 3.902237433669622391e+00
6.322945183878984077e-01 1.883051681004075783e-03 7.775132275132274629e+01 6.169160153136319380e+00
6.387697914265673127e-01 1.734308686986089703e-03 9.569886363636364024e+01 5.849795371500592367e+00
6.450797878865883739e-01 1.812617312363664322e-03 1.039184782608695627e+02 4.183102429504661934e+00
6.514777522098027518e-01 1.807195130708317372e-03 9.049729729729729399e+01 7.668378716537697315e+00
6.579453254174412180e-01 1.840076954070700866e-03 7.265608465608465849e+01 5.317089144433231773e+00
6.642487788958216788e-01 1.761967380250493336e-03 6.377472527472527730e+01 2.902763425248185758e+00
6.707545140871414846e-01 1.952870522822350513e-03 6.071500000000000341e+01 2.652800407116975734e+00
6.772291234912055646e-01 1.844192786587162299e-03 5.950793650793650613e+01 2.730143349286069387e+00
6.834443396870620857e-01 1.745041746211572261e-03 5.879347826086956275e+01 2.663098934648840288e+00
6.899300657465672337e-01 1.988575045799213618e-03 5.783574879227052890e+01 2.600864969210255673e+00
6.965346490814943170e-01 1.967867873463197050e-03 5.745226130653266239e+01 2.321787502037178985e+00
7.030970487636396538e-01 2.020648629947002003e-03 5.721359223300970598e+01 2.339836038962157971e+00
7.095716427219228573e-01 1.946516927103622520e-03 5.698484848484848442e+01 2.247264772849401737e+00
7.160970279381224657e-01 2.044543341153194464e-03 5.660476190476190794e+01 2.154508009245908351e+00
7.226116891734091219e-01 2.004959656352403585e-03 5.627317073170731732e+01 2.255589923113076711e+00
7.291288619178314390e-01 2.011427705279334160e-03 5.650476190476190652e+01 2.098752463908478028e+00
7.356079106374427967e-01 1.973711099579897668e-03 5.943269230769230660e+01 2.935599126878159826e+00
7.419803430714648762e-01 1.939746738906150680e-03 7.004878048780487632e+01 5.364545295035414441e+00
7.484516812817442188e-01 2.022257641999446187e-03 8.670454545454545325e+01 5.408957217599172473e+00
7.549512183205485671e-01 1.898119824350936232e-03 9.072596153846153300e+01 4.257406312053991115e+00
7.613853957290165342e-01 1.973382858640895885e-03 7.557272727272727764e+01 6.365178384599177619e+00
7.678481984516135617e-01 1.903941598965435333e-03 6.055348837209302104e+01 4.064416415727190923e+00
7.743372045322526320e-01 1.915374251326664194e-03 5.409909909909909942e+01 2.440202804043139384e+00
7.807807857039134047e-01 1.872160005679921477e-03 5.212385321100917679e+01 2.233789531733342493e+00
7.871827117013717734e-01 1.874571936203420349e-03 5.163348416289592535e+01 2.416895377144185897e+00
7.935705088346153291e-01 1.846468364235832015e-03 5.107623318385650180e+01 2.455688252605244148e+00
7.999497029225959288e-01 1.794315080242126848e-03 5.029223744292237797e+01 2.493451735549634396e+00
8.063895263538338742e-01 1.919941342275102670e-03 4.968644067796610386e+01 2.529891679572584540e+00
8.129038415374738591e-01 1.785391972586650427e-03 4.904444444444444429e+01 2.573885951025975061e+00
8.193543447618309994e-01 1.828478467253065801e-03 4.879999999999999716e+01 2.513283856766054480e+00
8.257450256705209934e-01 1.731942097964038994e-03 4.865625000000000000e+01 2.417558076566399539e+00
8.321389716972604766e-01 1.845140229989535984e-03 4.837916666666666998e+01 2.199313339810102796e+00
8.386208936931099922e-01 1.751195931903918061e-03 4.848717948717948900e+01 2.301011221356055181e+00
8.449970631363269424e-01 1.723661030767332288e-03 4.983620689655172242e+01 2.666532739155718534e+00
8.513046230100612677e-01 1.773741526074865430e-03 5.364705882352941302e+01 2.888691367232929963e+00
8.578256185292513214e-01 1.822821089358022794e-03 5.843319838056680027e+01 2.755253334612699945e+00
8.643009097266359797e-01 1.747841479780405487e-03 5.807053941908714023e+01 3.212960895329324273e+00
8.706520843132705689e-01 1.718512007701664341e-03 5.281092436974790161e+01 3.232777587247028350e+00
8.770655084888429043e-01 1.823306464836067656e-03 4.847826086956521863e+01 2.941866724498607422e+00
8.835379301005906738e-01 1.720994191554163586e-03 4.660082304526748942e+01 2.938940109079815954e+00
8.899818591232092624e-01 1.816014583941305376e-03 4.609019607843137578e+01 2.711642065478516717e+00
8.963154830142930907e-01 1.686559403020368615e-03 4.548749999999999716e+01 2.482815941627571910e+00
9.027402481510985455e-01 1.849914512401526186e-03 4.512595419847328060e+01 2.394307391325501300e+00
9.092741475074460622e-01 1.818523953956779297e-03 4.475294117647058556e+01 2.683419120753224085e+00
9.156513574886713247e-01 1.799905876070713017e-03 4.499206349206349387e+01 2.773869132134233251e+00
9.219738414041327434e-01 1.816254378221876130e-03 4.501953125000000000e+01 2.501501014235003151e+00
9.284093843578240524e-01 1.864548344913183461e-03 4.508461538461538254e+01 2.388452248216787588e+00
9.348720171621091035e-01 1.939851900461452830e-03 4.512359550561797761e+01 2.359176000233078607e+00
9.413551784733346084e-01 1.927152036582965508e-03 4.541221374045801440e+01 2.470353321587233530e+00
9.478756351150825488e-01 2.022964964773094239e-03 4.620289855072464036e+01 2.832805095500699810e+00
9.544794314844599059e-01 1.995588314593873917e-03 4.869741697416974091e+01 3.370090721596927352e+00
9.609640598131067302e-01 1.976081289299603128e-03 5.470955882352941302e+01 4.078622850897295926e+00
9.673540511875814429e-01 1.900963898517757681e-03 6.122348484848485128e+01 4.094081962616374248e+00
9.738764300010358532e-01 2.020370959177093719e-03 6.184722222222222143e+01 4.034196274765685430e+00
9.803887395962943563e-01 1.868024915732807104e-03 5.753558052434456727e+01 3.971786061099286336e+00
9.867609507399704993e-01 1.907798179635916648e-03 5.535842293906809886e+01 4.007840044773291588e+00
9.931792738827067701e-01 1.861169570246367679e-03 5.643636363636363740e+01 4.383470077159806522e+00
9.997024529712079666e-01 1.929714342920701943e-03 5.882876712328766899e+01 4.301268976218499240e+00
1.006152710574202525e+00 1.760100644785859590e-03 5.934926470588235503e+01 4.292250676941227638e+00
1.012546487448541255e+00 1.858180627704414780e-03 5.641176470588235503e+01 3.765814067000332610e+00
1.018988798098918291e+00 1.803978976354649174e-03 5.186267605633803157e+01 3.475014967164810731e+00
1.025394048634321598e+00 1.775790568352827222e-03 4.832982456140350536e+01 3.396244735147290417e+00
1.031778999059903112e+00 1.783042104657854955e-03 4.612802768166090317e+01 3.419054586874623602e+00
1.038243195035333466e+00 1.800042721148124251e-03 4.496928327645051127e+01 3.217747729875852336e+00
1.044593270705168830e+00 1.728638088187854378e-03 4.428321678321677979e+01 3.194369312617737489e+00
1.051019473275584426e+00 1.807666001326826760e-03 4.375585284280936804e+01 3.365640427345179209e+00
1.057452118334604840e+00 1.764796907398143069e-03 4.361694915254237515e+01 3.498828958278408674e+00
1.063812741872586898e+00 1.735604614353873946e-03 4.390068493150685214e+01 3.669580874477750498e+00
1.070275566257694377e+00 1.860876787998901613e-03 4.502903225806451815e+01 3.589306583196675948e+00
1.076675486865225739e+00 1.737707282280460301e-03 4.613058419243986208e+01 3.515878749966558914e+00
1.083000003099001241e+00 1.811785629637566912e-03 4.577302631578947256e+01 3.575828870652006497e+00
1.089457558406981885e+00 1.875700427842611059e-03 4.435389610389610482e+01 3.604100848284890191e+00
1.095857128634095679e+00 1.865882195591197666e-03 4.319078947368421240e+01 3.625623812024047155e+00
1.102286980210992473e+00 1.937596539280167377e-03 4.278913738019168989e+01 3.781944749011779905e+00
1.108924588094037933e+00 2.035521144429528872e-03 4.262804878048780211e+01 3.751117719605908452e+00
1.115518250266801070e+00 1.963453062553008333e-03 4.293354430379746844e+01 3.901694688064659911e+00
1.121980766162010701e+00 1.920251373127695831e-03 4.283439490445859832e+01 4.110040110895872623e+00
1.128426312748922689e+00 1.950613960551148517e-03 4.279192546583850998e+01 4.199175803365272408e+00
1.134959239864979930e+00 1.915365560061970144e-03 4.284307692307692150e+01 4.075382001915704322e+00
1.141388067807542761e+00 1.819889318180962796e-03 4.293968253968253634e+01 4.192507924969517852e+00
1.147829738822878420e+00 1.877407927217479219e-03 4.277507598784194442e+01 4.318663356724827374e+00
1.154234759887723172e+00 1.796226287448233561e-03 4.293103448275861922e+01 4.306957916993952473e+00
1.160592008141087206e+00 1.784421184300352767e-03 4.315789473684210265e+01 4.244867694466210040e+00
1.167026991042843242e+00 1.836276795008287468e-03 4.385373134328358447e+01 4.326829374876717260e+00
1.173494023876834547e+00 1.758155136545365687e-03 4.512538226299694344e+01 4.286735357937458524e+00
1.179808164649816637e+00 1.732605827553653768e-03 4.608923076923076678e+01 4.384062583235758481e+00
1.186220583891021807e+00 1.881017850291822648e-03 4.807073954983923159e+01 4.238286096243638390e+00
1.192681073817049464e+00 1.793318889751105601e-03 4.809655172413793167e+01 3.997151185294033571e+00
1.199065629744253458e+00 1.797529783280079436e-03 4.749647887323943962e+01 3.928271023173132370e+00
1.205502001077074059e+00 1.899328588103967692e-03 4.754109589041095774e+01 3.960441352016020655e+00
1.211991242640565014e+00 1.826306843735066819e-03 4.731521739130435122e+01 3.648948282242108210e+00
1.218362901235649165e+00 1.888953249129523074e-03 4.635251798561151304e+01 3.702908518209583999e+00
1.224837827500277143e+00 1.938626244914326818e-03 4.491366906474819842e+01 3.898367914641842624e+00
1.231306496939841066e+00 1.935692192720165272e-03 4.369565217391304657e+01 4.166868300099221045e+00
1.237900180047003751e+00 1.954996484647400414e-03 4.300000000000000000e+01 4.039677761377832077e+00
1.244387829439413284e+00 1.881879514088832415e-03 4.260447761194029681e+01 3.857866118316804815e+00
1.250735832344970877e+00 1.818331757808236372e-03 4.231782945736433987e+01 3.465363395797907753e+00
1.257083335292831006e+00 1.905720956169173206e-03 4.202952029520294985e+01 3.268881207174462844e+00
1.263603115287416090e+00 1.841854869392088893e-03 4.159848484848485128e+01 3.499479332910718110e+00
1.270020777910819465e+00 1.832011672431217405e-03 4.166920152091254437e+01 3.487015422180675284e+00
1.276488051741652807e+00 1.832185980768075541e-03 4.169961977186311941e+01 3.506088990121381865e+00
1.282839323063532211e+00 1.758750693263018286e-03 4.181102362204724443e+01 3.515287287618101164e+00
1.289363492023574365e+00 1.805471412487298991e-03 4.209764309764310042e+01 3.475874520322945749e+00
1.295761563244195891e+00 1.749310907134910172e-03 4.363087248322147360e+01 4.568283879402711634e+00
1.302096506369333051e+00 1.727886103868702576e-03 4.443189368770764247e+01 5.206144374690222953e+00
1.308490604613926855e+00 1.841981469325142248e-03 4.481619937694703992e+01 5.209317067257233091e+00
1.314923371882378955e+00 1.783204890748409099e-03 4.538906752411575241e+01 5.023197600991309741e+00
1.321263162947042602e+00 1.883891353746835161e-03 4.575617283950617065e+01 5.483278122867520921e+00
1.327809252188654421e+00 1.990407611744629372e-03 4.593786982248520445e+01 5.627918870848100497e+00
1.334395055816720577e+00 2.005908808147741692e-03 4.527272727272727337e+01 5.803959890731769100e+00
1.340924575314278222e+00 1.937181998292608577e-03 4.485671641791044806e+01 5.549769150631970405e+00
1.347326738882997477e+00 1.911240937813023883e-03 4.501183431952662772e+01 5.526955060407813036e+00
1.353867248119903444e+00 1.925349651844857632e-03 4.712181303116147291e+01 6.013884749560384435e+00
1.360292180733798650e+00 1.777880213384871099e-03 5.561676646706586524e+01 7.542010658518591981e+00
1.366716033276369036e+00 1.860440026654835337e-03 7.191596638655461504e+01 9.138736919692343363e+00
1.373134056949086190e+00 1.747663592607761902e-03 8.474269005847953906e+01 7.772740531247363194e+00
1.379508641949547476e+00 1.787974598008121871e-03 8.717183098591549140e+01 7.110335690822431332e+00
1.385849874457594222e+00 1.730044418412237826e-03 8.488472622478386143e+01 7.060519320119954756e+00
1.392210228535155858e+00 1.777760908321846531e-03 7.720000000000000284e+01 7.025113680377153003e+00
1.398630460992727143e+00 1.793834584281517276e-03 6.359444444444444144e+01 6.990943215120335452e+00
1.405027543482165298e+00 1.820682476180417696e-03 5.259779614325069019e+01 5.990321862298676692e+00
1.411380623846245186e+00 1.844474811107960554e-03 4.714722222222222570e+01 5.739808466714537261e+00
1.418011585217980208e+00 2.061904995500850411e-03 4.455112219451371658e+01 5.764659966701265681e+00
1.424633236002852632e+00 1.911062399977238009e-03 4.358469945355191300e+01 6.110203554423109473e+00
1.431027237377290762e+00 1.930893372260762729e-03 4.354353562005277212e+01 6.040229074857382585e+00
1.437551415863808524e+00 1.925262037142165712e-03 4.336623376623376913e+01 5.981079968659459567e+00
1.443999660086549230e+00 1.834928749309971486e-03 4.324137931034482563e+01 6.028727835607838870e+00
1.450408168300875378e+00 1.822080046480867126e-03 4.250785340314136107e+01 6.264247487052304386e+00
1.456762351763572827e+00 1.768742008520618686e-03 4.242368421052631788e+01 6.434939685301067414e+00
1.463211358413713192e+00 1.810126088705470279e-03 4.321428571428571530e+01 6.305814915557792943e+00
1.469593255354290973e+00 1.758193336020684059e-03 4.466145833333333570e+01 6.305307586021498878e+00
1.475950724204827313e+00 1.769305199294179780e-03 4.524031007751938205e+01 6.252212316022278671e+00
1.482355977374464340e+00 1.855140322631434503e-03 4.497249999999999659e+01 6.475274125471445430e+00
1.488803525874331735e+00 1.854999873494519958e-03 4.489567430025445560e+01 6.829366748071953985e+00
1.495319592526707764e+00 2.003828109077177445e-03 4.616746411483253354e+01 7.122046937106341069e+00
1.501939691759246465e+00 1.957822028991581826e-03 4.777615571776155434e+01 6.934729145787182247e+00
1.508463382234335848e+00 1.918938912685786129e-03 4.812469437652811877e+01 6.844547967052687198e+00
1.514901188746566207e+00 1.852902137227367511e-03 4.707881773399014946e+01 6.712343722712520666e+00
1.521228969867623793e+00 1.785136608190808364e-03 4.525692695214105754e+01 6.809581776760766481e+00
1.527563647216529041e+00 1.824993124647320475e-03 4.364663461538461320e+01 6.715850568137313736e+00
1.534022576503679458e+00 1.781774817406586286e-03 4.250000000000000000e+01 6.446098390966384706e+00
1.540418711468126034e+00 1.792491139398408621e-03 4.255741626794258536e+01 6.280462495128911193e+00
1.546838712332167631e+00 1.778278829154705072e-03 4.346746987951807029e+01 6.564375985585208184e+00
1.553238623106807825e+00 1.840983848395847744e-03 4.481839622641509635e+01 6.885491121557566707e+00
1.559673935783696619e+00 1.867161364404805587e-03 4.625178147268408679e+01 6.969830292915200509e+00
1.566161367499480317e+00 1.987417225671155377e-03 4.613605442176870497e+01 6.913782742613024723e+00
1.572795191923813007e+00 1.975399758409353626e-03 4.500898876404494331e+01 6.495110180399051636e+00
1.579229625961506400e+00 1.828964939238766603e-03 4.354086538461538680e+01 6.563089928401406148e+00
1.585615098485775532e+00 1.901195136705323549e-03 4.306278026905829392e+01 6.554241589140877622e+00
1.592069020803266399e+00 1.783565421147388207e-03 4.210093896713615180e+01 6.655641216887740796e+00
1.598398624204083740e+00 1.798472010651884717e-03 4.098858447488584744e+01 6.736720661180726211e+00
1.604843375939136507e+00 1.797152056805669104e-03 4.208823529411764497e+01 7.021886769112932747e+00
1.611212339410225569e+00 1.768878106258207515e-03 4.578669724770642091e+01 7.145754744917116597e+00
1.617590363377642504e+00 1.818287623560442892e-03 4.956629213483146401e+01 7.102596561783205864e+00
1.623974015669422899e+00 1.854816384487833732e-03 5.309706546275395311e+01 7.331234894632737031e+00
1.630543485616582799e+00 2.014479720267581264e-03 5.804811715481171319e+01 8.121970490575465718e+00
1.637155364196844820e+00 1.921442116166700376e-03 6.412995594713656544e+01 8.351773474259452712e+00
1.643640215828007012e+00 1.916406123937146409e-03 6.485407725321888961e+01 7.396631197354822440e+00
1.650095370295723063e+00 1.808845151496338592e-03 5.709799554565701385e+01 6.738644030252047834e+00
1.656466136267144007e+00 1.835556712886826517e-03 4.674623655913978837e+01 6.276908037982173560e+00
1.662921359457136594e+00 1.784847929403802829e-03 4.036819172113289511e+01 6.119568204762849462e+00
1.669278115879615276e+00 1.787810489320909016e-03 3.894588744588744333e+01 6.543658420735123826e+00
1.675603147458916142e+00 1.759339208401217896e-03 4.080573951434878666e+01 7.050074885199801855e+00
1.681944817773278311e+00 1.879012939346250957e-03 4.273628691983122252e+01 7.101252660622444424e+00
1.688494896982127180e+00 1.961244959671172398e-03 4.187654320987654444e+01 6.735519315096496484e+00
1.695047655103924189e+00 1.958531043791479891e-03 3.872016460905349788e+01 6.373921687459048080e+00
1.701563412030947964e+00 1.893890162085724253e-03 3.585803757828809779e+01 6.308063003635323795e+00
1.707975620325744792e+00 1.846204685496802061e-03 3.456158663883089588e+01 6.364452227173155840e+00
1.714377380249353600e+00 1.797036493929945892e-03 3.387029288702928653e+01 6.454836409952835474e+00
1.720768292737840266e+00 1.799184406037973973e-03 3.367835051546391867e+01 6.524102976762216954e+00
1.727152534628709324e+00 1.771490888047008889e-03 3.374321503131523770e+01 6.515944578114403640e+00
1.733526494930327289e+00 1.835615179227028260e-03 3.418329938900203757e+01 6.508288050558328486e+00
1.739975521513371870e+00 1.888347845677861795e-03 3.465040650406503886e+01 6.573307739998343280e+00
1.746497876640803248e+00 1.988580869552720402e-03 3.469573643410852526e+01 6.576020325905568953e+00
1.753090192095328348e+00 1.909790863647236811e-03 3.398804780876493936e+01 6.414301180237762523e+00
1.759542915568929722e+00 1.863330342728648260e-03 3.329880478087649465e+01 6.370136702525571515e+00
1.765978610475646082e+00 1.805054295706254351e-03 3.278399999999999892e+01 6.278129657788213969e+00
1.772332663329672986e+00 1.770928694831684115e-03 3.319959677419355160e+01 6.617797289124046856e+00
1.778664509689639184e+00 1.781133477909586536e-03 3.399201596806387471e+01 6.721425818204157743e+00
1.785069366740120511e+00 1.834600355293997381e-03 3.489257812500000000e+01 6.569339349007773166e+00
1.791506168727699633e+00 1.878728357369653049e-03 3.608431372549019756e+01 6.924163264169990839e+00
1.798039063906349488e+00 1.995486375923071192e-03 3.837592592592592666e+01 7.027072379569559324e+00
1.804647924016717919e+00 1.913848319004299433e-03 4.229118773946360221e+01 7.533581352257021635e+00
1.811089958053599736e+00 1.862622323854617795e-03 4.801724137931034164e+01 8.285941339818132079e+00
1.817521720439822408e+00 1.798364348704032875e-03 5.328185328185328018e+01 8.041174359830502993e+00
1.823812670535420288e+00 1.750448090683544159e-03 5.379607843137254974e+01 7.214988244156868014e+00
1.830221642949216854e+00 1.837728497302317443e-03 4.883985102420856350e+01 6.483192284340205447e+00
1.836582905300079060e+00 1.780128382536366044e-03 4.243725490196078454e+01 5.987557263513424211e+00
1.843061797820461534e+00 1.986079127245108083e-03 3.817229129662522524e+01 6.188923245075432789e+00
1.849632829275571488e+00 1.888944039210000737e-03 3.608082706766917624e+01 6.420948630983225769e+00
1.856090187264436642e+00 1.913060858845453587e-03 3.542000000000000171e+01 6.604323652660495370e+00
1.862531947297203283e+00 1.788974026913770074e-03 3.536981132075471379e+01 6.473295913656370359e+00
1.868931787959941415e+00 1.835149539700427039e-03 3.521311475409836333e+01 6.419358060008406142e+00
1.875342409945594868e+00 1.782793697721218873e-03 3.501489757914338696e+01 6.605806333275950237e+00
1.881685992375486283e+00 1.813583446463527945e-03 3.526937269372693606e+01 6.612626432696321999e+00
1.888176611507502489e+00 1.945205006648250507e-03 3.605114638447971487e+01 6.587301115101187321e+00
1.894684395670122701e+00 1.921537496908314263e-03 3.697495527728085563e+01 6.440122490357125251e+00
1.901176782548104516e+00 1.886986723452953362e-03 3.727224199288256301e+01 6.668113321001034599e+00
1.907561981128558237e+00 1.795440373499332084e-03 3.787773722627737527e+01 6.801229779762576477e+00
1.913985041606118376e+00 1.828239138046576940e-03 3.951403508771930007e+01 7.113355582232173013e+00
1.920403381422240097e+00 1.786024996940504313e-03 4.206702898550724967e+01 7.470544447463311144e+00
1.926716413297410169e+00 1.834639747803229817e-03 4.473131672597865105e+01 7.440291405338242292e+00
1.933271554332125497e+00 1.965820526812752777e-03 4.638888888888888573e+01 7.307064470152766056e+00
1.939792573083097382e+00 1.907526115978609412e-03 4.702443280977312412e+01 7.285822898717146501e+00
1.946288570836251841e+00 1.883695634446648113e-03 4.689097103918228271e+01 7.077559266773859825e+00
1.952655684029843908e+00 1.737190040939992066e-03 4.624050632911392711e+01 7.060735374074505799e+00
1.958969978021109171e+00 1.827434973414125523e-03 4.540784982935153380e+01 6.880864763869388057e+00
1.965496063115082181e+00 1.854230162972571750e-03 4.378716216216216139e+01 6.553956097763379063e+00
1.971963975922738088e+00 1.884120710564727479e-03 4.165753424657534509e+01 6.516728261338362138e+00
1.978442510441045021e+00 1.957066319931451050e-03 3.912685337726524182e+01 6.550822620643141470e+00
1.984931097981023740e+00 1.843590323278294961e-03 3.690598290598290276e+01 6.536254585362728520e+00
1.991287308585444338e+00 1.815152065882439042e-03 3.511584327086882240e+01 6.532481873088880064e+00
1.997701973476069481e+00 1.833321787203764366e-03 3.414119601328903997e+01 6.988497851284982687e+00
2.004164133665459424e+00 1.816322146449814287e-03 3.398831385642738212e+01 1.170697511295058391e+01
2.010465304371688244e+00 1.793999045974344238e-03 3.446620450606585706e+01 1.877163949171429635e+01
2.016906033528098163e+00 1.989616449670199121e-03 3.592957746478873560e+01 1.938635115771655038e+01
2.023555996358446407e+00 1.897180052363281293e-03 3.388511326860841422e+01 8.467024189952212510e+00
2.029968694217374470e+00 1.807083598350285245e-03 3.351170568561872898e+01 6.911641307365618658e+00
2.036339422929389187e+00 1.823287213829230622e-03 3.370664505672609579e+01 6.209942542911554675e+00
2.042808231593590484e+00 1.819045180469573350e-03 3.416883116883116855e+01 6.201776346601319823e+00
2.049121403930300289e+00 1.816823929832920258e-03 3.389297658862876261e+01 6.205920611202115467e+00
2.055546024436551544e+00 1.958593688934813937e-03 3.251697530864197461e+01 6.241331055472260303e+00
2.062179187475123410e+00 1.909374836257744399e-03 3.091718750000000071e+01 6.446114154691373166e+00
2.068587893715514436e+00 1.782255124468116103e-03 2.947135842880523882e+01 6.440425737792073058e+00
2.074943470461427353e+00 1.803325004765888358e-03 2.863232963549920740e+01 6.224705748564702823e+00
2.081348551495329602e+00 1.811685209211536278e-03 2.826399999999999935e+01 6.412450888700825580e+00
2.087807581420585645e+00 1.934124239786214495e-03 2.800459418070444073e+01 6.414831447410045406e+00
2.094354049547901386e+00 1.919763106963207067e-03 2.786042944785275921e+01 6.198178971288777817e+00
2.100814970511138302e+00 1.841726384006937703e-03 2.756289308176100761e+01 6.018583272384088190e+00
2.107147425483176129e+00 1.793021693532189254e-03 2.728075709779179903e+01 5.922648875810298641e+00
2.113573117004156288e+00 1.831442330790634650e-03 2.740458015267175540e+01 5.912490445379964932e+00
2.119956773712852627e+00 1.806996690666118864e-03 2.771044303797468444e+01 6.051169141007482821e+00
2.126392549358501416e+00 1.961143276791299343e-03 2.785147058823529420e+01 6.334296237430756094e+00
2.133022499541108896e+00 1.914261261225060897e-03 2.779585798816567888e+01 6.124886698668890794e+00
2.139480964562213483e+00 1.786119367506160778e-03 2.716589147286821770e+01 5.941108332883982435e+00
2.145796782645738254e+00 1.799418587043424183e-03 2.635015290519877595e+01 5.913128132239256374e+00
2.152165366120878165e+00 1.825425695775702338e-03 2.557121212121212039e+01 5.764208300973031385e+00
2.158655754564665852e+00 1.929951649106770133e-03 2.522093023255813904e+01 5.707710963270474558e+00
2.165204964825616862e+00 1.913631523374921799e-03 2.515204678362573176e+01 5.667871283376312519e+00
2.171687233764930003e+00 1.836559742283269984e-03 2.521481481481481524e+01 5.702639631384057495e+00
2.178057454997971210e+00 1.770075738143539208e-03 2.505740181268882338e+01 5.763055077489632083e+00
2.184381886656512783e+00 1.819268068842387707e-03 2.478008915304606319e+01 5.754026083714872897e+00
2.190889596552291430e+00 1.941484629964972597e-03 2.459943582510578253e+01 5.770754438062839498e+00
2.197415493733709368e+00 1.880394352234131695e-03 2.483309143686502196e+01 5.917997764645229530e+00
2.203858495652105454e+00 1.844129167940211774e-03 2.504052098408104143e+01 5.812047213546095215e+00
2.210218428929338064e+00 1.776952575370011446e-03 2.532100591715976279e+01 5.819608600512243157e+00
2.216548686487991304e+00 1.820372229284925253e-03 2.526560232220609592e+01 5.764319001585897162e+00
2.223054582631938558e+00 1.937499342758612587e-03 2.468922651933701573e+01 5.728402291086259979e+00
2.229555406010463425e+00 1.871681269043944497e-03 2.412589413447782505e+01 5.717108727632975729e+00
2.236023148886606471e+00 1.876509468722661325e-03 2.374408901251738513e+01 5.682936476162141481e+00
2.242466908337517939e+00 1.781536512235300631e-03 2.366474820143884727e+01 5.703533056141504076e+00
2.248784053696174290e+00 1.815619011182786555e-03 2.368579626972740471e+01 5.749664724719680819e+00
2.255261034229438355e+00 1.958337742873136802e-03 2.359060402684563584e+01 5.816399498872962148e+00
2.261752977112598817e+00 1.833135357339661826e-03 2.341018387553041080e+01 5.655911135961643410e+00
2.268193030407839927e+00 1.856919733580766289e-03 2.320327421555252556e+01 5.543073971483694962e+00
2.274620661936892052e+00 1.792548502283534354e-03 2.346685472496474034e+01 5.677503417034601263e+00
2.281045196159239286e+00 1.907452264699439036e-03 2.370135135135135229e+01 5.811533267470720077e+00
2.287566856146262317e+00 1.925687837049752790e-03 2.439572192513368876e+01 5.791989446997040325e+00
2.294017676381079784e+00 1.818149611703329506e-03 2.472991689750692501e+01 5.864710145075356706e+00
2.300373896127871021e+00 1.814054264739159471e-03 2.510807113543091518e+01 5.857819548702920542e+00
2.306733295622487301e+00 1.809288305020508025e-03 2.556593406593406570e+01 5.815666731464030903e+00
2.313210233147671158e+00 1.927057466226796351e-03 2.676171875000000000e+01 6.160204551570305220e+00
2.319750633036068876e+00 1.886628064392380537e-03 2.873509933774834479e+01 6.387047630915709817e+00
2.326167810919689938e+00 1.805281422939875990e-03 3.024898511502029663e+01 6.378078547598693859e+00
2.332524891627314911e+00 1.808157875111407291e-03 3.090725806451612812e+01 6.148859941593961764e+00
2.339018828040365428e+00 1.927078730268403945e-03 3.046794871794871895e+01 6.045836315360909374e+00
2.345529090540556361e+00 1.892646505679497623e-03 2.995811518324607192e+01 6.004864716473694131e+00
2.351902562585342693e+00 1.808634088653226840e-03 2.968850267379679053e+01 5.997783639851124171e+00
2.358283426411155403e+00 1.828495513811564770e-03 3.013950456323337690e+01 6.108772041020102073e+00
2.364665150299146479e+00 1.824483169818866225e-03 3.105033112582781385e+01 6.309578311949884721e+00
2.371140522023317931e+00 1.956229962378429419e-03 3.242928039702233178e+01 6.547582875947704828e+00
2.377698484074287411e+00 1.857249505322706908e-03 3.395256410256410362e+01 6.611683271833879161e+00
2.384135550776628865e+00 1.806484998011118103e-03 3.425677419354838804e+01 6.381036290565920588e+00
2.390495270780528703e+00 1.815820546892564329e-03 3.294150417827297872e+01 5.969337234487012367e+00
2.396907059408651008e+00 1.904650256318906557e-03 2.929411764705882248e+01 5.652627782985661042e+00
2.403395490390968892e+00 1.861409897307351969e-03 2.628309859154929740e+01 5.413127012985980535e+00
2.409868588547004364e+00 1.847911660654164229e-03 2.439630681818181657e+01 5.365454884202378594e+00
2.416315494183244539e+00 1.848423108511250412e-03 2.344202898550724612e+01 5.326121462966205478e+00
2.422721222723576151e+00 1.879130934971403807e-03 2.240843023255813904e+01 5.375525871366104269e+00
2.429135064156228374e+00 1.862177758942303550e-03 2.214809384164222905e+01 5.169586025139095931e+00
2.435558328952115659e+00 1.829358714226044739e-03 2.204142011834319703e+01 5.176311779088131892e+00
2.441961929587736613e+00 1.826990787003958654e-03 2.215419161676646809e+01 5.253352572988269742e+00
2.448435267415004279e+00 1.916283866918213176e-03 2.199709302325581461e+01 5.143294245551414789e+00
2.454898310690642571e+00 1.851262751470384186e-03 2.218787878787878753e+01 5.089634580722792734e+00
2.461278332832209870e+00 1.841207405127180587e-03 2.232175226586102568e+01 5.286188542285292336e+00
2.467732767309350983e+00 1.860175811866779036e-03 2.311861861861861911e+01 5.514756037738878902e+00
2.474317234005322774e+00 1.907302378477835920e-03 2.360228898426323241e+01 5.431724569390877555e+00
2.480763678027650521e+00 1.850982492662076430e-03 2.406815020862308785e+01 5.417189042389240150e+00
2.487114426650852028e+00 1.791691956921820849e-03 2.372191011235955216e+01 5.390464441899361248e+00
2.493514277050582706e+00 1.905910091373927331e-03 2.288639365918097823e+01 5.144813890841787973e+00
2.500016016455529844e+00 1.897218154373805617e-03 2.234550195567144826e+01 4.933691674403051231e+00
2.506504299072060071e+00 1.823698874814003905e-03 2.181818181818181657e+01 4.963997824749748489e+00
2.512828968428921783e+00 1.779539787674511890e-03 2.138761776581426588e+01 4.938621069037536060e+00
2.519262120792594928e+00 1.938201810876334251e-03 2.115940224159402305e+01 5.017374037857137203e+00
2.525775074220281358e+00 1.871497825325404334e-03 2.111337579617834237e+01 4.883094838048005926e+00
2.532197693037325781e+00 1.807973308604888651e-03 2.068974358974358907e+01 4.960304954995040205e+00
2.538545427775757091e+00 1.816891897915347926e-03 2.029343629343629374e+01 4.920917708694176440e+00
2.545039371368973402e+00 1.965732421291352915e-03 2.031116389548693490e+01 4.981531952895331017e+00
2.551577586228050976e+00 1.818913119815899733e-03 2.057323232323232176e+01 5.046291487292120514e+00
2.557912035390546901e+00 1.811160408138717511e-03 2.119799498746867172e+01 5.040924596309037220e+00
2.564418003384666633e+00 1.924750488034227642e-03 2.189374262101534896e+01 4.896367660565227986e+00
2.570930014234638072e+00 1.852202887801034569e-03 2.208658536585365795e+01 4.789335080942773715e+00
2.577333690207623373e+00 1.816621428331073769e-03 2.166014669926650527e+01 4.687441074328289936e+00
2.583698900290759326e+00 1.840143410056186736e-03 2.094376528117359371e+01 4.612139420539329571e+00
2.590116643848396460e+00 1.922552353981257615e-03 2.045157526254375568e+01 4.668058740222550185e+00
2.596553429180498362e+00 1.801710981220896188e-03 2.014320388349514701e+01 4.665672662149475514e+00
2.602955615407046341e+00 1.842317350104424401e-03 2.006705882352941117e+01 4.584018877114703905e+00
2.609495359574187212e+00 1.911716238635802895e-03 1.977993158494868808e+01 4.689723684945660054e+00
2.615974071523933020e+00 1.844748521006626301e-03 1.965529411764705969e+01 4.658661316249075313e+00
2.622378270172453618e+00 1.832507040312451657e-03 1.934970760233917986e+01 4.602540251372113644e+00
2.628819659223405658e+00 1.883705983027747803e-03 1.887356321839080309e+01 4.568880936107157176e+00
2.635224897504864661e+00 1.872415782458078902e-03 1.886436781609195279e+01 4.549707552824031609e+00
2.641639659702591736e+00 1.816527212418568051e-03 1.912687427912341320e+01 4.521277481176550594e+00
2.648064596936881454e+00 1.851525790120274028e-03 1.948574686431014769e+01 4.530217508662296666e+00
2.654540339871488630e+00 1.920962172705038655e-03 2.003630363036303663e+01 4.534410457824836094e+00
2.661017435989672553e+00 1.820997431850269717e-03 2.076800000000000068e+01 4.502782885537091495e+00
2.667377750780578261e+00 1.839233884157700843e-03 2.129625425652667303e+01 4.423260913546822160e+00
2.673833255939705111e+00 1.922629864361171097e-03 2.114842903575297939e+01 4.325816783718752667e+00
2.680310332336410362e+00 1.829470795604572599e-03 2.099328107502799412e+01 4.480760534689753882e+00
2.686679530094181256e+00 1.809753184080302099e-03 2.330269058295964157e+01 1.085026379756103765e+01
2.693172569770623248e+00 1.920456143785719515e-03 3.679281183932346977e+01 5.214656714535254167e+01
2.699710169678059213e+00 1.845827250732203417e-03 6.481897491821156621e+01 1.603714702557353746e+02
2.706108723802718607e+00 1.808001129835774996e-03 9.696899224806202255e+01 3.215964057224769590e+02
2.712552861480932442e+00 1.909490143508341294e-03 9.832560590094836073e+01 3.917393177349094344e+02
2.719028861112676942e+00 1.848278151304674159e-03 6.828216216216216594e+01 2.665389574240313664e+02
2.725349625855669977e+00 1.780111837505188701e-03 3.480799112097669479e+01 9.330942516184769886e+01
2.731792001493120292e+00 1.927874637693306574e-03 2.149795081967213051e+01 2.624716014795578545e+01
2.738310186615081410e+00 1.835670255000661395e-03 1.902768903088391994e+01 5.189723992306685574e+00
2.744685257899765141e+00 1.793617037467074102e-03 1.890625000000000000e+01 3.839976596103248152e+00
2.751066800196758422e+00 1.878288467704576767e-03 1.955031446540880680e+01 3.939217858618392132e+00
2.757601512830000434e+00 1.862141664063760894e-03 2.031160220994475196e+01 3.852019600732318416e+00
2.764058068263966828e+00 1.836587841443396716e-03 2.060592255125284566e+01 3.687424780173274463e+00
2.770529172478649382e+00 1.887167826034379927e-03 2.029279279279279180e+01 3.490038376274373633e+00
2.776955143396238501e+00 1.821333560803167642e-03 1.955896226415094219e+01 3.371392350143259442e+00
2.783316304171964184e+00 1.843620978786204888e-03 1.897641509433962170e+01 3.305674209230559768e+00
2.789755116199374552e+00 1.895104686621155434e-03 1.868323699421965145e+01 3.138036309027518733e+00
2.796202065730379438e+00 1.823396814250311405e-03 1.872934131736526808e+01 2.953037709110305276e+00
2.802598215598055997e+00 1.839199823105454800e-03 1.895329341317365390e+01 2.904081731361479513e+00
2.809058618291326859e+00 1.891542357478581855e-03 1.933684210526315894e+01 2.932042442387949421e+00
2.815539484174618412e+00 1.814857361145085640e-03 1.988592233009708821e+01 2.909467851903710489e+00
2.821989463872399906e+00 1.865090624993398201e-03 2.064516129032258007e+01 2.986280469885932209e+00
2.828483713597702565e+00 1.883630524017047489e-03 2.192023809523809419e+01 3.018903969843743429e+00
2.834900904292738222e+00 1.791954038426357698e-03 2.299749999999999872e+01 3.057571033516637726e+00
2.841279989216558999e+00 1.876324795384782303e-03 2.344565217391304301e+01 3.110291472431203186e+00
2.847767858763501359e+00 1.886990809494324501e-03 2.324154589371980606e+01 3.180354165392687005e+00
2.854224446368732959e+00 1.845718501710050556e-03 2.226923076923077005e+01 3.178488129814613039e+00
2.860652227376856871e+00 1.895283512592607677e-03 2.075606796116504782e+01 3.258805421759261023e+00
2.867113210476443186e+00 1.859648482407798373e-03 1.963366336633663423e+01 3.003545351409356190e+00
2.873572830144707879e+00 1.886954548921765396e-03 1.875061425061425169e+01 2.819100634445640630e+00
2.879995266294152589e+00 1.874768549312584749e-03 1.836679058240396500e+01 2.856718158076685388e+00
2.886377499349285003e+00 1.822646243021190660e-03 1.852658227848101191e+01 2.944092638030308962e+00
2.892826601299819611e+00 1.901257081905588812e-03 1.839368165249088705e+01 3.199491307199095136e+00
2.899287209408602628e+00 1.837036175435869181e-03 1.839999999999999858e+01 3.150960720021675154e+00
2.905651471559458798e+00 1.820821310380915442e-03 1.803049555273189242e+01 3.229332408514971053e+00
2.912064357739847953e+00 1.885695667761764669e-03 1.740294840294840384e+01 3.430824979447629097e+00
2.918524733004972394e+00 1.831846772134888184e-03 1.736662452591655992e+01 3.329947914386734986e+00
2.925008101889499557e+00 1.898964803942654149e-03 1.719244823386114618e+01 3.481425504179223918e+00
2.931494571104498625e+00 1.860470468068603543e-03 1.763411619283065690e+01 3.498778262709399289e+00
2.937893251398651540e+00 1.817351826735809622e-03 1.790840652446675207e+01 3.844568278518916138e+00
2.944305546311252186e+00 1.880927000690213848e-03 1.751865222623345275e+01 4.292968468370191637e+00
2.950769139483569781e+00 1.826098071515048831e-03 1.729975429975430146e+01 4.063706400750231928e+00
2.957217893682505760e+00 1.858471812583063982e-03 1.650000000000000000e+01 4.129120584806659444e+00
2.963641657319503686e+00 1.840162297927921053e-03 1.639141104294478524e+01 3.971760946528938074e+00
2.970043842149071800e+00 1.832295957600710810e-03 1.614975247524752433e+01 3.937794418188146572e+00
2.976510225225458495e+00 1.909562939757382871e-03 1.552969121140142583e+01 4.123867066895245515e+00
2.983008757323797777e+00 1.820848808918005624e-03 1.558240396530359284e+01 4.114810277361196533e+00
2.989442833175567138e+00 1.860876473636659213e-03 1.523636363636363633e+01 4.121215686272973855e+00
2.995851322080832713e+00 1.818248084975540883e-03 1.534037267080745259e+01 4.095456998422147166e+00
3.002288071879581022e+00 1.866109072499165002e-03 1.505724725943970732e+01 4.215187236911770441e+00
3.008748785923475388e+00 1.879638502675874765e-03 1.511393939393939334e+01 4.426970184423437260e+00
3.015199648864150372e+00 1.825469582085792030e-03 1.535696517412935336e+01 4.502336038240878580e+00
3.021614952218953931e+00 1.867358907394168870e-03 1.530787878787878853e+01 4.862111608440233823e+00
3.028035269137849372e+00 1.805619228951016193e-03 1.573591989987484396e+01 4.908042366698611048e+00
3.034481983401863037e+00 1.885823396422961745e-03 1.557160048134777419e+01 4.989406512078282674e+00
3.040948636384726900e+00 1.846244746713175374e-03 1.537160493827160579e+01 4.918661681688600851e+00
3.047399548284976056e+00 1.866575050031695892e-03 1.463157894736842124e+01 4.748862756614157021e+00
3.053818065407082116e+00 1.858882463793821993e-03 1.421130221130221116e+01 4.503324914421488856e+00
3.060168791671987076e+00 1.792825745411367891e-03 1.391094147582697182e+01 4.346868201510420526e+00
3.066596020837712544e+00 1.927764682785730512e-03 1.353672985781990512e+01 4.316204189672864899e+00
3.073140751332767540e+00 1.856356834428901387e-03 1.353893695920890039e+01 4.352025574848301659e+00
3.079593295930210139e+00 1.886716362797553155e-03 1.327030303030302960e+01 4.415673561616032750e+00
3.086017154762366044e+00 1.830431539716442747e-03 1.354374999999999929e+01 4.330706134685199160e+00
3.092486513109037993e+00 1.905108961471654438e-03 1.347242206235011963e+01 4.543334925096573329e+00
3.098964516853627060e+00 1.852397442341169754e-03 1.380469715698393074e+01 5.118490541549461703e+00
3.105440922044128804e+00 1.880034527507769499e-03 1.593454545454545368e+01 1.412311237051886437e+01
3.111821301298671738e+00 1.810318297736169049e-03 2.578616352201257911e+01 6.432696974388362321e+01
3.118233335063332667e+00 1.868901341642052608e-03 4.365286236297198741e+01 1.600554780441193827e+02
3.124683867316949026e+00 1.865189586864977357e-03 5.666300366300366420e+01 2.226273781772120230e+02
3.131144652615997170e+00 1.844489775254080271e-03 5.305185185185185048e+01 1.893656625830654718e+02
3.137527951480249655e+00 1.850518740970626434e-03 3.304674046740467475e+01 8.889760317736259765e+01
3.143946084488824955e+00 1.842734159383119935e-03 1.814498141263940667e+01 2.677762345529237464e+01
3.150358822729363073e+00 1.875642417003805899e-03 1.242475728155339887e+01 6.326642665230647111e+00
3.156784286039504561e+00 1.823981601210612454e-03 1.160374999999999979e+01 4.237185460302631768e+00
3.163270120323041557e+00 1.930117905744787839e-03 1.131957547169811384e+01 4.044521484197342254e+00
3.169756141428992979e+00 1.817110211355118556e-03 1.128266331658291399e+01 3.972057461030165992e+00
3.176136715832639901e+00 1.869400486556539428e-03 1.103151515151515127e+01 3.948488336936529119e+00
3.182603852824878121e+00 1.855271636042648588e-03 1.111165644171779121e+01 3.981236808820650452e+00
3.189050645908320547e+00 1.867823016262818358e-03 1.079151515151515106e+01 3.902902124753916180e+00
3.195475202712392715e+00 1.830177604982121797e-03 1.078411910669975171e+01 3.946481431216736890e+00
3.201930699474990760e+00 1.890160737295187680e-03 1.068817204301075208e+01 4.020601231107153062e+00
3.208380198036255848e+00 1.818817371399450607e-03 1.078206724782067205e+01 4.102613423919271973e+00
3.214769441202507405e+00 1.856295446885927562e-03 1.057160194174757351e+01 4.075493163227945637e+00
3.221219946103295317e+00 1.854520719188760538e-03 1.051833740831295927e+01 4.069197201344195491e+00
3.227683765295594753e+00 1.874065427032763596e-03 1.036823104693140785e+01 4.045125951056512292e+00
3.234131017772435612e+00 1.840716304877563787e-03 1.053884093711467251e+01 4.201177885359835606e+00
3.240599979113187423e+00 1.901252405176113557e-03 1.037603795966785292e+01 4.433263140135675684e+00
3.247028333220890239e+00 1.799593188369970169e-03 1.046037735849056638e+01 4.572540719791582831e+00
3.253443203786942295e+00 1.907653420062672836e-03 1.024646226415094397e+01 4.477635179772113005e+00
3.259883502116921683e+00 1.795580006981134817e-03 1.032745591939546514e+01 4.283585464224518802e+00
3.266300345605878341e+00 1.923600185575663262e-03 9.900351699882767420e+00 4.047263305638733932e+00
3.272853483066015201e+00 1.856140221165968399e-03 9.390243902439024737e+00 3.736522479251744855e+00
3.279208055010873757e+00 1.838273880463746476e-03 9.157055214723927250e+00 3.500579091046926106e+00
3.285677511815711327e+00 1.882917816817657360e-03 9.042959427207637901e+00 3.263945008232125744e+00
3.292103848527159204e+00 1.835553428200827411e-03 8.871481028151775305e+00 3.177024502052042010e+00
3.298586108799094418e+00 1.888317585372828586e-03 8.675771971496436308e+00 3.189047751041123480e+00
3.305031100311709658e+00 1.850386223069815962e-03 8.634591961023142304e+00 3.150896896899989308e+00
3.311493553422723224e+00 1.868513817595845007e-03 8.588305489260143588e+00 3.058997000376150410e+00
3.317903636599865536e+00 1.824831080609758517e-03 8.566871165644171171e+00 2.993381737115357044e+00
3.324331097200103002e+00 1.867240715589447552e-03 8.322619047619047805e+00 2.846863950690567080e+00
3.330698991454875468e+00 1.802295415888940022e-03 8.309226932668329013e+00 2.949622941292525002e+00
3.337129369178693850e+00 1.924555404658041986e-03 8.204413472706155730e+00 2.982766537352354863e+00
3.343680207265053550e+00 1.861922247852822480e-03 8.139927623642943644e+00 2.913283980390402483e+00
3.350044083295126374e+00 1.835162792558274860e-03 7.982989064398541501e+00 2.895033841399873964e+00
3.356505604070456616e+00 1.871227406804753775e-03 7.751184834123222345e+00 2.711110193889642694e+00
3.362916001860436488e+00 1.833654571443432820e-03 7.769792935444579385e+00 2.675567411160102882e+00
3.369285096640512123e+00 1.875337531839301689e-03 7.779268292682926855e+00 2.676643973807928401e+00
3.375802434903234950e+00 1.848095989791553092e-03 7.645466847090663265e+00 2.670126871744278318e+00
3.382214916359785661e+00 1.843501739730700950e-03 7.639044943820224809e+00 2.675280515457080455e+00
3.388621595555129762e+00 1.837214591020290208e-03 7.586608442503639083e+00 2.738528649594252240e+00
3.395087870480640202e+00 1.897809126909797642e-03 7.533430232558139927e+00 2.811615373767438086e+00
3.401600099274715294e+00 1.862825267528726196e-03 7.455505279034690957e+00 2.709096711817934100e+00
3.408008587822927371e+00 1.829521772960810344e-03 7.391304347826086918e+00 2.605769580502134808e+00
3.414429009776510870e+00 1.863403552598411495e-03 7.263157894736842479e+00 2.654083341490059755e+00
3.420895508941175223e+00 1.876279003669552520e-03 7.555555555555555358e+00 2.877067422493484017e+00
3.427361199308996742e+00 1.871984655860910217e-03 7.438291139240506666e+00 2.863186141736226986e+00
3.433789816721534383e+00 1.835455874914732619e-03 7.292207792207792139e+00 2.779416108562557053e+00
3.440207803416203358e+00 1.864980166185075923e-03 7.310679611650485299e+00 2.607451419143875349e+00
3.446682336316245543e+00 1.886495457043324163e-03 7.317073170731707599e+00 2.640056603506902189e+00
3.453142116062292821e+00 1.850491205141300763e-03 7.262184873949579789e+00 2.503228619249872722e+00
3.459552608189105705e+00 1.840426776601197887e-03 7.169520547945205102e+00 2.512089599243155114e+00
3.466037827277117955e+00 1.895781883946169978e-03 7.166383701188454580e+00 2.508004428942210762e+00
3.472473653977210972e+00 1.828931698347952819e-03 7.153846153846154188e+00 2.574792861016832912e+00
3.478868831430015351e+00 1.849798838882201271e-03 7.191071428571429003e+00 2.642964524845508034e+00
3.485296939778874226e+00 1.846836384750711896e-03 7.186813186813187038e+00 2.597593937469399705e+00
3.491740378822062674e+00 1.892374048568714641e-03 7.014571948998178819e+00 2.629833738903482487e+00
3.498222076309955408e+00 1.850392789083453492e-03 6.866541353383458279e+00 2.568018668626221856e+00
3.504611891581455030e+00 1.828338000025509641e-03 6.780582524271844491e+00 2.599845554698474004e+00
3.511032309223517167e+00 1.894740202114146826e-03 6.937022900763358813e+00 2.701377503649776468e+00
3.517510811405253346e+00 1.847376399887671770e-03 6.634387351778656239e+00 2.609649184936619015e+00
3.523886222494890585e+00 1.819823680849573695e-03 6.411042944785275921e+00 2.438105558377090532e+00
3.530333766363422221e+00 1.913949961282706506e-03 6.611881188118811536e+00 2.538628535198010905e+00
3.536838628960300657e+00 1.837400593869444173e-03 6.364583333333333037e+00 2.456946996104446779e+00
3.543212277439104163e+00 1.824314092004992007e-03 6.261241970021413472e+00 2.373294370807879528e+00
3.549634251627681092e+00 1.895848120010211945e-03 6.388655462184874345e+00 2.502724311825848424e+00
3.556117060308725097e+00 1.842284182035823720e-03 6.126637554585152579e+00 2.532229655705192428e+00
3.562580790750173865e+00 1.873137250446494902e-03 6.230263157894737169e+00 2.693011029050085714e+00
3.569027121761189303e+00 1.864198494303047999e-03 6.175675675675675436e+00 2.646803687270390615e+00
3.575415228040989657e+00 1.829283293316363293e-03 6.055684454756380397e+00 2.550064490126966898e+00
3.581824267593239686e+00 1.860007523854312686e-03 5.881670533642691545e+00 2.283221798538448422e+00
3.588330065081806630e+00 1.895947895659538546e-03 5.700696055684455033e+00 2.148808814376022891e+00
3.594804804657118602e+00 1.838793340235311087e-03 5.473170731707317493e+00 2.128596267542605336e+00
3.601203120605045882e+00 1.866742151695356807e-03 5.490196078431372584e+00 2.117533584468809238e+00
3.607629953215138574e+00 1.849946976811765471e-03 5.305764411027569238e+00 1.932444597127321639e+00
3.614090854913730499e+00 1.868416365547433599e-03 5.232323232323232709e+00 1.901526889040463963e+00
3.620574720227974552e+00 1.873754476683962313e-03 5.061696658097686097e+00 1.866757617426656024e+00
3.627004027770476924e+00 1.835919208150294619e-03 4.909090909090909172e+00 1.830971062469150867e+00
3.633382280898821648e+00 1.849285921997263250e-03 4.951219512195121908e+00 1.607968951293654358e+00
3.639818201334091174e+00 1.872714577785467623e-03 4.948228882833787701e+00 1.753909279091280693e+00
3.646271849872324999e+00 1.848931603973280732e-03 4.716292134831460814e+00 1.576746220979478030e+00
3.652754025121335069e+00 1.886957975833729447e-03 4.699438202247191221e+00 1.391728500340228658e+00
3.659208746855755479e+00 1.834720162372708565e-03 4.631268436578171332e+00 1.221174809140928685e+00
3.665582835495777569e+00 1.840575612045432024e-03 4.459459459459459651e+00 1.137884558184282247e+00
3.672040343112283445e+00 1.886479483533069204e-03 4.284431137724550531e+00 1.214019247662196710e+00
3.678529717319615866e+00 1.858096912976999176e-03 4.285714285714285587e+00 9.811895429806916091e-01
3.684932562337432049e+00 1.835190244932949138e-03 4.176848874598070971e+00 8.400163847194395128e-01
3.691340469028411508e+00 1.865394116403416890e-03 4.093851132686084249e+00 8.671871133698805245e-01
3.697825917576230470e+00 1.878575472322643403e-03 4.016447368421052211e+00 7.925106062014738439e-01
3.704288468942850354e+00 1.854378416201764085e-03 4.122866894197952270e+00 8.172618453722583221e-01
3.710695071708606907e+00 1.843173339766954189e-03 3.905263157894736992e+00 7.731171092630606534e-01
3.717119980493126530e+00 1.858275420549158159e-03 3.696428571428571619e+00 6.940894784403761619e-01
3.723579054116692877e+00 1.875547371405369762e-03 3.716363636363636314e+00 7.226031911781370942e-01
3.730020297411832164e+00 1.843995263516665269e-03 3.594696969696969724e+00 7.103863458221716387e-01
3.736426917509388268e+00 1.851423495632689448e-03 3.562015503875969102e+00 7.601248557219257851e-01
3.742862848593606184e+00 1.866246695943705233e-03 3.446640316205533683e+00 7.112208636820777086e-01
3.749304155234212121e+00 1.850203366498975400e-03 3.577868852459016313e+00 7.273868585778221485e-01
3.755769545342233950e+00 1.881542671327423493e-03 3.585062240663900557e+00 7.732329240281046179e-01
3.762207580716425692e+00 1.832713059301602828e-03 3.552631578947368585e+00 7.548703055549859098e-01
3.768650259547695391e+00 1.882711660849632198e-03 3.515418502202642959e+00 6.233752581959011163e-01
3.775101190588130873e+00 1.841328330998877110e-03 3.753488372093023440e+00 7.766606277295290406e-01
3.781544745172108257e+00 1.876261972947606757e-03 3.617924528301886600e+00 7.322420059560760253e-01
3.787984350729691752e+00 1.841817734800533721e-03 3.606965174129353358e+00 6.524245402711347230e-01
3.794443778523244770e+00 1.888119406057294294e-03 3.603015075376884369e+00 6.990345317174394557e-01
3.800887998049732097e+00 1.829598834944004332e-03 3.559139784946236507e+00 6.108719405006773906e-01
3.807319286871066577e+00 1.879776389761753357e-03 3.521739130434782705e+00 6.317452646400172345e-01
3.813728772969168901e+00 1.816176537965013323e-03 3.380116959064327631e+00 6.290832214671444600e-01
3.820127884734960233e+00 1.870328496078344947e-03 3.366863905325443884e+00 7.482575489871512442e-01
3.826558902351690605e+00 1.840091099185570860e-03 3.515723270440251458e+00 8.288296480574229852e-01
3.832976717434447789e+00 1.862754303780558536e-03 3.363636363636363757e+00 8.413038736343767532e-01
3.839467489846226655e+00 1.881591717002498556e-03 3.202702702702702631e+00 7.311672527523674914e-01
3.845958738964208923e+00 1.872212223355807642e-03 3.214285714285714413e+00 6.140364942953557836e-01
3.852379013358490312e+00 1.829949564810406546e-03 3.238461538461538503e+00 6.612700707796135280e-01
3.858770514458473411e+00 1.860590576749386821e-03 3.200000000000000178e+00 7.222188034107115406e-01
3.865201312403456324e+00 1.846877382617491750e-03 3.162393162393162260e+00 5.925241029892992506e-01
3.871669834970288271e+00 1.885989225799452511e-03 3.178571428571428381e+00 7.769396399216818017e-01
3.878154213609482870e+00 1.855219997046820071e-03 3.145631067961164984e+00 8.358541067973163097e-01
3.884570297975108666e+00 1.842018581107749764e-03 3.252631578947368318e+00 5.910692691101666618e-01
3.891030549524630455e+00 1.892572859664069882e-03 3.200000000000000178e+00 5.734883511361751340e-01
3.897480132485925619e+00 1.830223622249431631e-03 3.149999999999999911e+00 7.529110173187799626e-01
3.903837790606199842e+00 1.833538786489578550e-03 3.013698630136986356e+00 7.022468831767835207e-01
3.910297958451704581e+00 1.898394991490752427e-03 2.794117647058823373e+00 6.406770856115282520e-01
3.916760076293909876e+00 1.823271174774054393e-03 2.844827586206896353e+00 7.927285470739754425e-01
3.923205856217289345e+00 1.907998375040481686e-03 3.094339622641509635e+00 6.387287124456891840e-01
3.929647757040283906e+00 1.804292177573046203e-03 2.930232558139534760e+00 8.588923401218316878e-01
3.936002968608691699e+00 1.864030959871269735e-03 3.000000000000000000e+00 7.884298457197199683e-01
3.942404476100300759e+00 1.828532384993888883e-03 3.000000000000000000e+00 8.905635565617211480e-01
3.948822507765122225e+00 1.871711324841116540e-03 3.227272727272727071e+00 7.713892158398700793e-01
3.955157590966607906e+00 1.825831164639231917e-03 3.428571428571428381e+00 7.953949089757175184e-01
3.961507824082775464e+00 1.968979546566614058e-03 2.714285714285714413e+00 9.367769320431430513e-01
