# q qerr I(q) I(q)err
8.294532032279089417e-03 3.215448162638725495e-03 1.666666666666666574e-01 2.326205301247620483e+01
1.547771440847061503e-02 1.298069176105710962e-03 1.666666666666666574e-01 3.908679799852857184e-01
2.114153426598287117e-02 1.953452460535632252e-03 1.499999999999999944e-01 3.674234614174767266e-01
2.708829541553820289e-02 1.932501425123600049e-03 3.333333333333333148e-01 4.859126579037749694e-01
3.424760286937652415e-02 2.393094809829984012e-03 5.227272727272727071e-01 5.112373581455450511e-01
4.134659872356089005e-02 1.444308516548141333e-03 6.666666666666666297e-01 5.443310539518173563e-01
4.709622292726145520e-02 1.633576272088444088e-03 7.249999999999999778e-01 6.461423991660043553e-01
5.289360403025952090e-02 1.994215660312892175e-03 2.145833333333333481e+00 4.486379850911722755e+00
5.941266175682404643e-02 2.038777625163953021e-03 9.660000000000000142e+00 2.393026535582085756e+01
6.623959740571712385e-02 2.014614798769268252e-03 2.857407407407407263e+01 6.422872580167683054e+01
7.251770781946841049e-02 1.767162065969994948e-03 6.700000000000000000e+01 1.191115548551021135e+02
7.836204892921720677e-02 1.794558473909566021e-03 9.912000000000000455e+01 1.596218280812495891e+02
8.476368586159346852e-02 2.173163639586968114e-03 1.211093750000000000e+02 1.789132708775225069e+02
9.171767809022127182e-02 2.151270969520740432e-03 1.491176470588235361e+02 2.051526037622964509e+02
9.840741527280037759e-02 1.879523288412654567e-03 1.950000000000000000e+02 2.155780214524043856e+02
1.046713563714864598e-01 1.717715818177843919e-03 2.403000000000000114e+02 2.384366079275579580e+02
1.108696467093386595e-01 1.978629817275711061e-03 2.880943396226414848e+02 2.436833942918831042e+02
1.174911181025048434e-01 2.151142134119994175e-03 3.258360655737704974e+02 2.504320920591773358e+02
1.240901985761322518e-01 1.682567093931450772e-03 3.536600000000000250e+02 2.798848648998369981e+02
1.302695169190241364e-01 1.981638030988197227e-03 4.087966101694915437e+02 2.904287408132610153e+02
1.366843399328758479e-01 1.885635125754002352e-03 4.680892857142857224e+02 3.575162494523136729e+02
1.431380625310322841e-01 2.037281709542672608e-03 6.669032258064515872e+02 5.905380586814881099e+02
1.497407916800755912e-01 2.013243134106564892e-03 1.068190476190476147e+03 1.208742544204854312e+03
1.560440161600273323e-01 1.800320108738214832e-03 1.636157894736842081e+03 1.815049125703359095e+03
1.626324968867556287e-01 2.166758397174068339e-03 2.145027027027027088e+03 2.125577991260745421e+03
1.693678508908615654e-01 1.711853084056604935e-03 2.582099999999999909e+03 2.118584966040619747e+03
1.755753172360756398e-01 1.940749690505284321e-03 2.750826086956521522e+03 1.889113866107025615e+03
1.819629297477835528e-01 1.792019476258344991e-03 3.193800000000000182e+03 2.002896733771825438e+03
1.883474920212158954e-01 1.982820530303366913e-03 3.739625000000000000e+03 2.171550471757193463e+03
1.949500334927739553e-01 1.985593967279970003e-03 4.069506666666666661e+03 2.668984816375777427e+03
2.014306324154557237e-01 1.750557958225071797e-03 3.276028985507246489e+03 2.507864811472779365e+03
2.076332073357673447e-01 1.865361520913360683e-03 2.054000000000000000e+03 1.497025320697953475e+03
2.140129245322099916e-01 1.882829286684015863e-03 1.211546666666666624e+03 5.861730135188566919e+02
2.204163405633874917e-01 1.951475208267544961e-03 8.625641025641025408e+02 1.491844385741657106e+02
2.268599176829277919e-01 1.954094669929957399e-03 7.527500000000000000e+02 5.249663679703681396e+01
2.335135695299082048e-01 1.986313139076756155e-03 7.154117647058823195e+02 6.525443415179222484e+01
2.400224779461884173e-01 1.823737618079871109e-03 6.985750000000000455e+02 7.383597742631974370e+01
2.464005577519743639e-01 1.894426896505377799e-03 6.860941176470588516e+02 7.969348199611030736e+01
2.528350385827773383e-01 1.829527638271931031e-03 6.829047619047619264e+02 7.714088401356676172e+01
2.590859102888302123e-01 1.817056121189442432e-03 6.791071428571428896e+02 7.688063900008391727e+01
2.654612130450557106e-01 1.918447197659697845e-03 6.781235955056180273e+02 7.273051413195321402e+01
2.718942366720529247e-01 1.942478483450333455e-03 6.760769230769230944e+02 7.023856822722336801e+01
2.784185743669774227e-01 1.921358219378808702e-03 6.767849462365591080e+02 6.773672022935389236e+01
2.849156375412667530e-01 1.882334819595186037e-03 6.779893617021276668e+02 6.300886282841352681e+01
2.911870294677750826e-01 1.766712284927822799e-03 6.765168539325842403e+02 6.313982535424391784e+01
2.976511517037133681e-01 2.019527329980297554e-03 6.767766990291262346e+02 6.192107729494062340e+01
3.043178155919494809e-01 1.919359421117726450e-03 6.768300000000000409e+02 6.097121779987669044e+01
3.108074081907638564e-01 1.815555258398614735e-03 6.801122448979591582e+02 5.842489313876165369e+01
3.170970610330232087e-01 1.826000353424227750e-03 6.839090909090908781e+02 6.080487843508914381e+01
3.235319739834495723e-01 1.908097576542081529e-03 6.995142857142857338e+02 8.751085608067599253e+01
3.300700059726238145e-01 1.867687188749142220e-03 7.478773584905660528e+02 1.602879273405249023e+02
3.365262003550894554e-01 1.808122422876843900e-03 8.466761904761905271e+02 2.784110641388388672e+02
3.429039324965278412e-01 1.810371451943152679e-03 9.594150943396226694e+02 3.494398907867430921e+02
3.492243179790229801e-01 1.835371710213073819e-03 1.057120370370370438e+03 3.370847315663289123e+02
3.555659880086458058e-01 1.813249007222180170e-03 1.143842592592592609e+03 3.145153851072087718e+02
3.620245372922214488e-01 1.918012235727336494e-03 1.245170940170940185e+03 3.296614133533986433e+02
3.685406119477664388e-01 1.798147481859587110e-03 1.261981981981982017e+03 4.162238433839594336e+02
3.750909242308860247e-01 1.967614233492519498e-03 1.134588709677419274e+03 4.146306033095391967e+02
3.816999037813160189e-01 1.752662604176019427e-03 8.903565217391304714e+02 2.555106862247590129e+02
3.880273799716012495e-01 1.749306826939258557e-03 7.255603448275861638e+02 9.784893960674327218e+01
3.942361145945514900e-01 1.745527907058957431e-03 6.557586206896551175e+02 2.734060388304646239e+01
4.006128291384035145e-01 1.852638254231622501e-03 6.300813008130081698e+02 1.610213041822579072e+01
4.070503578694664726e-01 1.848743254130127446e-03 6.180806451612903629e+02 1.781927060198258062e+01
4.135933781829447264e-01 1.871256654943844995e-03 6.091860465116278647e+02 1.903907058554835174e+01
4.202179442533061082e-01 1.832712641984981681e-03 6.017769230769230262e+02 2.014988217035747198e+01
4.266798115557093873e-01 1.759393680741872749e-03 5.943149606299213019e+02 2.174724465042180555e+01
4.330910535146235696e-01 1.771858374752960505e-03 5.882769230769230262e+02 2.021924210941869049e+01
4.395078467689783608e-01 1.772659720438770270e-03 5.825378787878787534e+02 1.857118745996320186e+01
4.457793319829173595e-01 1.654526338047628432e-03 5.767839999999999918e+02 1.884164578798784362e+01
4.521562795609589402e-01 1.887763445894669913e-03 5.722676056338028729e+02 1.831917693572666650e+01
4.587656575942579140e-01 1.769717907920350091e-03 5.680510948905109672e+02 1.807298533070614255e+01
4.652405449529313231e-01 1.746242423612376143e-03 5.635035971223021534e+02 1.686771463808748095e+01
4.716282944699034529e-01 1.704407088516023735e-03 5.585182481751825208e+02 1.803012941234253219e+01
4.780637153179891352e-01 1.798647074538550902e-03 5.540555555555555429e+02 1.876899243860718869e+01
4.844976548260259142e-01 1.723433333189145671e-03 5.519225352112675864e+02 1.855218570748189677e+01
4.908596034113225648e-01 1.665744062354685903e-03 5.497872340425532229e+02 2.091580627576627904e+01
4.972011979785150859e-01 1.734256865849588200e-03 5.511917808219178596e+02 2.709418149104931928e+01
5.036178995103413047e-01 1.747915368961153139e-03 5.641824324324323925e+02 5.527537064288049606e+01
5.101756467004687767e-01 1.800451491856020327e-03 6.074580645161290704e+02 1.207515694276922602e+02
5.166235656727934389e-01 1.648057805296297825e-03 6.780408163265306030e+02 1.870570104067254817e+02
5.229884928033705638e-01 1.714260039451578075e-03 7.491973684210526017e+02 2.025176612882355585e+02
5.293925748937229336e-01 1.756900675637705763e-03 8.188397435897435344e+02 1.882507505575212576e+02
5.357749724968067229e-01 1.647361260156582873e-03 8.740066225165562628e+02 1.843039348395768968e+02
5.422269581426349960e-01 1.797131621318817348e-03 9.005060975609756042e+02 2.353548631011601913e+02
5.488258977193463117e-01 1.752106618123457169e-03 8.143043478260869961e+02 2.598305753684509796e+02
5.552607346015674405e-01 1.711536068502800701e-03 6.713750000000000000e+02 1.765336525106473857e+02
5.616696921416424182e-01 1.713298320607429745e-03 5.609141104294478737e+02 7.683979476314323165e+01
5.680596363279470928e-01 1.671719726027721563e-03 5.091750000000000114e+02 2.481132239019113683e+01
5.744116486855085357e-01 1.773350792090137981e-03 4.885773809523809632e+02 1.045556682112549929e+01
5.808465417437830292e-01 1.706594120505047427e-03 4.782303030303030482e+02 9.734499345230636536e+00
5.872915480827241019e-01 1.773275249674210931e-03 4.715202312138728189e+02 1.043468521893672829e+01
5.936297343998458986e-01 1.608871723183330060e-03 4.666049382716049649e+02 1.054833700182351031e+01
6.000917821228005655e-01 1.852508397134843563e-03 4.613406593406593288e+02 1.058669592746236887e+01
6.066068710033430955e-01 1.719733697199352486e-03 4.560877192982455881e+02 1.072237970276197849e+01
6.129319261090041548e-01 1.700305612135823196e-03 4.517209302325581461e+02 1.078066895640745315e+01
6.193292159447265632e-01 1.792945791870086646e-03 4.469277777777778056e+02 1.142535895105680410e+01
6.257789288608107681e-01 1.769335618302108433e-03 4.420225988700564699e+02 1.210825282440986861e+01
6.322945183878984077e-01 1.883051681004075783e-03 4.380423280423280517e+02 1.183656421435497208e+01
6.387697914265673127e-01 1.734308686986089703e-03 4.347329545454545610e+02 1.136411362634132871e+01
6.450797878865883739e-01 1.812617312363664322e-03 4.308750000000000000e+02 1.028321764903336621e+01
6.514777522098027518e-01 1.807195130708317372e-03 4.272270270270270203e+02 9.832569126726141917e+00
6.579453254174412180e-01 1.840076954070700866e-03 4.231481481481481524e+02 1.002298944728156016e+01
6.642487788958216788e-01 1.761967380250493336e-03 4.182252747252747440e+02 1.047445584911714533e+01
6.707545140871414846e-01 1.952870522822350513e-03 4.149649999999999750e+02 1.243618108584785986e+01
6.772291234912055646e-01 1.844192786587162299e-03 4.160264550264550394e+02 1.865573577059606336e+01
6.834443396870620857e-01 1.745041746211572261e-03 4.258206521739130608e+02 3.601003046962666332e+01
6.899300657465672337e-01 1.988575045799213618e-03 4.470917874396135403e+02 6.221710266393107247e+01
6.965346490814943170e-01 1.967867873463197050e-03 4.747236180904522485e+02 7.619297513791651966e+01
7.030970487636396538e-01 2.020648629947002003e-03 4.974805825242718242e+02 6.662242919911706451e+01
7.095716427219228573e-01 1.946516927103622520e-03 5.136414141414140886e+02 5.927385433024018369e+01
7.160970279381224657e-01 2.044543341153194464e-03 5.170523809523809859e+02 7.087619911442085652e+01
7.226116891734091219e-01 2.004959656352403585e-03 4.856000000000000227e+02 7.588671916970362474e+01
7.291288619178314390e-01 2.011427705279334160e-03 4.356047619047619150e+02 5.142427627566760151e+01
7.356079106374427967e-01 1.973711099579897668e-03 3.972067307692307736e+02 2.162100533443340211e+01
7.419803430714648762e-01 1.939746738906150680e-03 3.779121951219512425e+02 1.000788267544385057e+01
7.484516812817442188e-01 2.022257641999446187e-03 3.677181818181817903e+02 1.089375247447850548e+01
7.549512183205485671e-01 1.898119824350936232e-03 3.624951923076923208e+02 1.150511808864767005e+01
7.613853957290165342e-01 1.973382858640895885e-03 3.580545454545454618e+02 1.172902382979930458e+01
7.678481984516135617e-01 1.903941598965435333e-03 3.543162790697674609e+02 1.222060960347658920e+01
7.743372045322526320e-01 1.915374251326664194e-03 3.505495495495495675e+02 1.234553289464343351e+01
7.807807857039134047e-01 1.872160005679921477e-03 3.467568807339449677e+02 1.312097409808891868e+01
7.871827117013717734e-01 1.874571936203420349e-03 3.427692307692307736e+02 1.313452843097431000e+01
7.935705088346153291e-01 1.846468364235832015e-03 3.388026905829596558e+02 1.241872610976611035e+01
7.999497029225959288e-01 1.794315080242126848e-03 3.361324200913242066e+02 1.213984199408262299e+01
8.063895263538338742e-01 1.919941342275102670e-03 3.335338983050847332e+02 1.217879908218257867e+01
8.129038415374738591e-01 1.785391972586650427e-03 3.308933333333333167e+02 1.321385356078709705e+01
8.193543447618309994e-01 1.828478467253065801e-03 3.276893617021276555e+02 1.365782649384554048e+01
8.257450256705209934e-01 1.731942097964038994e-03 3.246294642857142776e+02 1.412490123227162719e+01
8.321389716972604766e-01 1.845140229989535984e-03 3.223083333333333371e+02 1.377036244782411067e+01
8.386208936931099922e-01 1.751195931903918061e-03 3.202820512820512704e+02 1.334257158587566572e+01
8.449970631363269424e-01 1.723661030767332288e-03 3.190431034482758719e+02 1.452652331453090895e+01
8.513046230100612677e-01 1.773741526074865430e-03 3.209117647058823763e+02 2.060248606434758045e+01
8.578256185292513214e-01 1.822821089358022794e-03 3.307125506072874259e+02 3.742778761838565060e+01
8.643009097266359797e-01 1.747841479780405487e-03 3.489419087136929534e+02 5.679540805435786410e+01
8.706520843132705689e-01 1.718512007701664341e-03 3.725210084033613498e+02 6.461703329196882351e+01
8.770655084888429043e-01 1.823306464836067656e-03 3.923715415019763100e+02 5.496968070670685336e+01
8.835379301005906738e-01 1.720994191554163586e-03 4.063827160493827364e+02 4.621687068928967790e+01
8.899818591232092624e-01 1.816014583941305376e-03 4.051294117647058783e+02 5.451475277295305943e+01
8.963154830142930907e-01 1.686559403020368615e-03 3.752208333333333599e+02 5.444441035996665335e+01
9.027402481510985455e-01 1.849914512401526186e-03 3.343931297709923456e+02 3.196687818075933407e+01
9.092741475074460622e-01 1.818523953956779297e-03 3.056117647058823650e+02 1.147754439655346559e+01
9.156513574886713247e-01 1.799905876070713017e-03 2.925396825396825307e+02 9.123739934121724460e+00
9.219738414041327434e-01 1.816254378221876130e-03 2.869921875000000000e+02 1.166943399215513111e+01
9.284093843578240524e-01 1.864548344913183461e-03 2.834576923076922981e+02 1.231696645777252819e+01
9.348720171621091035e-01 1.939851900461452830e-03 2.797715355805243576e+02 1.244897228223547181e+01
9.413551784733346084e-01 1.927152036582965508e-03 2.763931297709923456e+02 1.201603584454540474e+01
9.478756351150825488e-01 2.022964964773094239e-03 2.735797101449275601e+02 1.244041247844702802e+01
9.544794314844599059e-01 1.995588314593873917e-03 2.706642066420664037e+02 1.290514743422762223e+01
9.609640598131067302e-01 1.976081289299603128e-03 2.685000000000000000e+02 1.249830870911081782e+01
9.673540511875814429e-01 1.900963898517757681e-03 2.662878787878788103e+02 1.289591330188781626e+01
9.738764300010358532e-01 2.020370959177093719e-03 2.640069444444444571e+02 1.273419405025571294e+01
9.803887395962943563e-01 1.868024915732807104e-03 2.620749063670411942e+02 1.305542445830908527e+01
9.867609507399704993e-01 1.907798179635916648e-03 2.601863799283154322e+02 1.273559269259745363e+01
9.931792738827067701e-01 1.861169570246367679e-03 2.580436363636363808e+02 1.249574764033385676e+01
9.997024529712079666e-01 1.929714342920701943e-03 2.559863013698630141e+02 1.221944491077913497e+01
1.006152710574202525e+00 1.760100644785859590e-03 2.541176470588235361e+02 1.271265478550808581e+01
1.012546487448541255e+00 1.858180627704414780e-03 2.526435986159169431e+02 1.272342664776636667e+01
1.018988798098918291e+00 1.803978976354649174e-03 2.518697183098591665e+02 1.371311304377379514e+01
1.025394048634321598e+00 1.775790568352827222e-03 2.528385964912280599e+02 1.663387096502222207e+01
1.031778999059903112e+00 1.783042104657854955e-03 2.558685121107266411e+02 2.293762204533256366e+01
1.038243195035333466e+00 1.800042721148124251e-03 2.628225255972696459e+02 2.955296014675490568e+01
1.044593270705168830e+00 1.728638088187854378e-03 2.705349650349650119e+02 3.003515919407761814e+01
1.051019473275584426e+00 1.807666001326826760e-03 2.766956521739130608e+02 2.270974331584510963e+01
1.057452118334604840e+00 1.764796907398143069e-03 2.795152542372881612e+02 1.426352425252151157e+01
1.063812741872586898e+00 1.735604614353873946e-03 2.722500000000000000e+02 1.430717321763639305e+01
1.070275566257694377e+00 1.860876787998901613e-03 2.581612903225806690e+02 1.263636543985874638e+01
1.076675486865225739e+00 1.737707282280460301e-03 2.441030927835051614e+02 8.113670596428493198e+00
1.083000003099001241e+00 1.811785629637566912e-03 2.354506578947368496e+02 8.647084716811962224e+00
1.089457558406981885e+00 1.875700427842611059e-03 2.315259740259740227e+02 9.818535046556007728e+00
1.095857128634095679e+00 1.865882195591197666e-03 2.289276315789473699e+02 1.063994081501826017e+01
1.102286980210992473e+00 1.937596539280167377e-03 2.267060702875399443e+02 1.122207781423840700e+01
1.108924588094037933e+00 2.035521144429528872e-03 2.243628048780487916e+02 1.169795023534067013e+01
1.115518250266801070e+00 1.963453062553008333e-03 2.222025316455696213e+02 1.230612183076779509e+01
1.121980766162010701e+00 1.920251373127695831e-03 2.202101910828025382e+02 1.219929223952274100e+01
1.128426312748922689e+00 1.950613960551148517e-03 2.187422360248447148e+02 1.214538583065293764e+01
1.134959239864979930e+00 1.915365560061970144e-03 2.173538461538461490e+02 1.140386729794381715e+01
1.141388067807542761e+00 1.819889318180962796e-03 2.162253968253968139e+02 1.088689648114565500e+01
1.147829738822878420e+00 1.877407927217479219e-03 2.146382978723404165e+02 1.061119952950452472e+01
1.154234759887723172e+00 1.796226287448233561e-03 2.128965517241379359e+02 1.082237360301332885e+01
1.160592008141087206e+00 1.784421184300352767e-03 2.113746130030959876e+02 1.092601724116650175e+01
1.167026991042843242e+00 1.836276795008287468e-03 2.102208955223880480e+02 1.138732925417029485e+01
1.173494023876834547e+00 1.758155136545365687e-03 2.086391437308868433e+02 1.109040664646806640e+01
1.179808164649816637e+00 1.732605827553653768e-03 2.026984615384615438e+02 1.468386321964538688e+01
1.186220583891021807e+00 1.881017850291822648e-03 2.029453376205787833e+02 1.192999625052436485e+01
1.192681073817049464e+00 1.793318889751105601e-03 2.019827586206896513e+02 1.265223117187774804e+01
1.199065629744253458e+00 1.797529783280079436e-03 2.021866197183098564e+02 1.368731495786527042e+01
1.205502001077074059e+00 1.899328588103967692e-03 2.054486301369863099e+02 1.699815442058743642e+01
1.211991242640565014e+00 1.826306843735066819e-03 2.129637681159420310e+02 2.224115207966322316e+01
1.218362901235649165e+00 1.888953249129523074e-03 2.240827338129496411e+02 2.512223211112058507e+01
1.224837827500277143e+00 1.938626244914326818e-03 2.336618705035971288e+02 1.873114185446505431e+01
1.231306496939841066e+00 1.935692192720165272e-03 2.362717391304347814e+02 1.268299262111853132e+01
1.237900180047003751e+00 1.954996484647400414e-03 2.247204301075268802e+02 1.373154205596544841e+01
1.244387829439413284e+00 1.881879514088832415e-03 2.071604477611940354e+02 1.097984265615144039e+01
1.250735832344970877e+00 1.818331757808236372e-03 1.954186046511627808e+02 7.851877102962173005e+00
1.257083335292831006e+00 1.905720956169173206e-03 1.897343173431734442e+02 8.429566040939890925e+00
1.263603115287416090e+00 1.841854869392088893e-03 1.864393939393939377e+02 9.089510624759315149e+00
1.270020777910819465e+00 1.832011672431217405e-03 1.842319391634981116e+02 8.440596191571062334e+00
1.276488051741652807e+00 1.832185980768075541e-03 1.826730038022813574e+02 9.059698777674649151e+00
1.282839323063532211e+00 1.758750693263018286e-03 1.818661417322834666e+02 9.276868820921757575e+00
1.289363492023574365e+00 1.805471412487298991e-03 1.777912457912457853e+02 1.247608466231186242e+01
1.295761563244195891e+00 1.749310907134910172e-03 1.794362416107382501e+02 1.225138327106012603e+01
1.302096506369333051e+00 1.727886103868702576e-03 1.794916943521594703e+02 1.300379716206008496e+01
1.308490604613926855e+00 1.841981469325142248e-03 1.782616822429906449e+02 1.291504476286823433e+01
1.314923371882378955e+00 1.783204890748409099e-03 1.778135048231511348e+02 1.241576075248363153e+01
1.321263162947042602e+00 1.883891353746835161e-03 1.771728395061728349e+02 1.248152880038899504e+01
1.327809252188654421e+00 1.990407611744629372e-03 1.768461538461538396e+02 1.228662212715125435e+01
1.334395055816720577e+00 2.005908808147741692e-03 1.758240469208211039e+02 1.272461153036662118e+01
1.340924575314278222e+00 1.937181998292608577e-03 1.748089552238805879e+02 1.271461517598115876e+01
1.347326738882997477e+00 1.911240937813023883e-03 1.733076923076923208e+02 1.216933138297263284e+01
1.353867248119903444e+00 1.925349651844857632e-03 1.721586402266289042e+02 1.229054252906439082e+01
1.360292180733798650e+00 1.777880213384871099e-03 1.722275449101796312e+02 1.311863579740058050e+01
1.366716033276369036e+00 1.860440026654835337e-03 1.730560224089635994e+02 1.532029060199234394e+01
1.373134056949086190e+00 1.747663592607761902e-03 1.743538011695906391e+02 1.731380004806100104e+01
1.379508641949547476e+00 1.787974598008121871e-03 1.759690140845070516e+02 1.775043170822075567e+01
1.385849874457594222e+00 1.730044418412237826e-03 1.773919308357348825e+02 1.595058013789394913e+01
1.392210228535155858e+00 1.777760908321846531e-03 1.791750000000000114e+02 1.255843563329269053e+01
1.398630460992727143e+00 1.793834584281517276e-03 1.793777777777777658e+02 9.035116675136702469e+00
1.405027543482165298e+00 1.820682476180417696e-03 1.762561983471074427e+02 7.317556862467406553e+00
1.411380623846245186e+00 1.844474811107960554e-03 1.708833333333333258e+02 9.043718405202175958e+00
1.418011585217980208e+00 2.061904995500850411e-03 1.661022443890274189e+02 1.060476886849551725e+01
1.424633236002852632e+00 1.911062399977238009e-03 1.635409836065573757e+02 1.176737480990085416e+01
1.431027237377290762e+00 1.930893372260762729e-03 1.625277044854881296e+02 1.186967342638560297e+01
1.437551415863808524e+00 1.925262037142165712e-03 1.618181818181818130e+02 1.246471288463316540e+01
1.443999660086549230e+00 1.834928749309971486e-03 1.612652519893899239e+02 1.248433926690428386e+01
1.450408168300875378e+00 1.822080046480867126e-03 1.603403141361256417e+02 1.251994215278188349e+01
1.456762351763572827e+00 1.768742008520618686e-03 1.597026315789473756e+02 1.220365562142409033e+01
1.463211358413713192e+00 1.810126088705470279e-03 1.591377551020408134e+02 1.190370579620616986e+01
1.469593255354290973e+00 1.758193336020684059e-03 1.587421875000000000e+02 1.255925732921570237e+01
1.475950724204827313e+00 1.769305199294179780e-03 1.583462532299741667e+02 1.290733704778607915e+01
1.482355977374464340e+00 1.855140322631434503e-03 1.575049999999999955e+02 1.304238235522943157e+01
1.488803525874331735e+00 1.854999873494519958e-03 1.569287531806615732e+02 1.249436858820450524e+01
1.495319592526707764e+00 2.003828109077177445e-03 1.562535885167464187e+02 1.235261175778694920e+01
1.501939691759246465e+00 1.957822028991581826e-03 1.563552311435523166e+02 1.242343867166711213e+01
1.508463382234335848e+00 1.918938912685786129e-03 1.560513447432762746e+02 1.288030025781154286e+01
1.514901188746566207e+00 1.852902137227367511e-03 1.559950738916256228e+02 1.311130685862668344e+01
1.521228969867623793e+00 1.785136608190808364e-03 1.561183879093198925e+02 1.359818795864426733e+01
1.527563647216529041e+00 1.824993124647320475e-03 1.568605769230769340e+02 1.450901361409500190e+01
1.534022576503679458e+00 1.781774817406586286e-03 1.581626213592232943e+02 1.637561730773667179e+01
1.540418711468126034e+00 1.792491139398408621e-03 1.610526315789473699e+02 1.860402633897171754e+01
1.546838712332167631e+00 1.778278829154705072e-03 1.649469879518072162e+02 2.069164203089447795e+01
1.553238623106807825e+00 1.840983848395847744e-03 1.695141509433962312e+02 2.017420763946836715e+01
1.559673935783696619e+00 1.867161364404805587e-03 1.738978622327790902e+02 1.658079663211164956e+01
1.566161367499480317e+00 1.987417225671155377e-03 1.766054421768707527e+02 1.248399904503178526e+01
1.572795191923813007e+00 1.975399758409353626e-03 1.763168539325842801e+02 1.092678807514755590e+01
1.579229625961506400e+00 1.828964939238766603e-03 1.741850961538461604e+02 1.407013106558224891e+01
1.585615098485775532e+00 1.901195136705323549e-03 1.739910313901345376e+02 1.692875834479013619e+01
1.592069020803266399e+00 1.783565421147388207e-03 1.761643192488263026e+02 1.966304545947516047e+01
1.598398624204083740e+00 1.798472010651884717e-03 1.784885844748858403e+02 1.991969789356476284e+01
1.604843375939136507e+00 1.797152056805669104e-03 1.807986425339366576e+02 1.838833720901213198e+01
1.611212339410225569e+00 1.768878106258207515e-03 1.815848623853210881e+02 1.504179536135747597e+01
1.617590363377642504e+00 1.818287623560442892e-03 1.799460674157303401e+02 1.129150537683266720e+01
1.623974015669422899e+00 1.854816384487833732e-03 1.756230248306997623e+02 7.866789951081790910e+00
1.630543485616582799e+00 2.014479720267581264e-03 1.682803347280334663e+02 6.566797981868218947e+00
1.637155364196844820e+00 1.921442116166700376e-03 1.609735682819383271e+02 6.167746214372096247e+00
1.643640215828007012e+00 1.916406123937146409e-03 1.546351931330472098e+02 7.709675380705769854e+00
1.650095370295723063e+00 1.808845151496338592e-03 1.501581291759465557e+02 8.708331386695059351e+00
1.656466136267144007e+00 1.835556712886826517e-03 1.471419354838709808e+02 9.327929410265697996e+00
1.662921359457136594e+00 1.784847929403802829e-03 1.452287581699346504e+02 9.820192743154008141e+00
1.669278115879615276e+00 1.787810489320909016e-03 1.433787878787878753e+02 1.000282329291091443e+01
1.675603147458916142e+00 1.759339208401217896e-03 1.415430463576159070e+02 1.042898339124189100e+01
1.681944817773278311e+00 1.879012939346250957e-03 1.403396624472573819e+02 1.065736547352903685e+01
1.688494896982127180e+00 1.961244959671172398e-03 1.396995884773662624e+02 1.042648569375925227e+01
1.695047655103924189e+00 1.958531043791479891e-03 1.388909465020576022e+02 1.043085316546483909e+01
1.701563412030947964e+00 1.893890162085724253e-03 1.383966597077244387e+02 1.113356295352783043e+01
1.707975620325744792e+00 1.846204685496802061e-03 1.386075156576200413e+02 1.183152616517689637e+01
1.714377380249353600e+00 1.797036493929945892e-03 1.386569037656903731e+02 1.233140606612460211e+01
1.720768292737840266e+00 1.799184406037973973e-03 1.388907216494845329e+02 1.157032277027724909e+01
1.727152534628709324e+00 1.771490888047008889e-03 1.388997912317327632e+02 1.030192330284461555e+01
1.733526494930327289e+00 1.835615179227028260e-03 1.377270875763747426e+02 9.213374324403064364e+00
1.739975521513371870e+00 1.888347845677861795e-03 1.359308943089430954e+02 9.109717551243898370e+00
1.746497876640803248e+00 1.988580869552720402e-03 1.340968992248062079e+02 9.810930853945523111e+00
1.753090192095328348e+00 1.909790863647236811e-03 1.327569721115537789e+02 1.011872820553316821e+01
1.759542915568929722e+00 1.863330342728648260e-03 1.320378486055776932e+02 1.022654918422288794e+01
1.765978610475646082e+00 1.805054295706254351e-03 1.311639999999999873e+02 1.055156064286226858e+01
1.772332663329672986e+00 1.770928694831684115e-03 1.309979838709677438e+02 1.023119793696153756e+01
1.778664509689639184e+00 1.781133477909586536e-03 1.307145708582834231e+02 1.024635646294107794e+01
1.785069366740120511e+00 1.834600355293997381e-03 1.306738281250000000e+02 1.016362262451315246e+01
1.791506168727699633e+00 1.878728357369653049e-03 1.300490196078431495e+02 1.083511208890977429e+01
1.798039063906349488e+00 1.995486375923071192e-03 1.301259259259259125e+02 1.014100248559749851e+01
1.804647924016717919e+00 1.913848319004299433e-03 1.295440613026819960e+02 1.039995493021299922e+01
1.811089958053599736e+00 1.862622323854617795e-03 1.290076628352490502e+02 1.041927342201506690e+01
1.817521720439822408e+00 1.798364348704032875e-03 1.286138996138996049e+02 1.020290232597308844e+01
1.823812670535420288e+00 1.750448090683544159e-03 1.285372549019607789e+02 9.957294046524406639e+00
1.830221642949216854e+00 1.837728497302317443e-03 1.280130353817504556e+02 1.024548970010656923e+01
1.836582905300079060e+00 1.780128382536366044e-03 1.279313725490196134e+02 1.040498837867313320e+01
1.843061797820461534e+00 1.986079127245108083e-03 1.277939609236234446e+02 1.060077190024898286e+01
1.849632829275571488e+00 1.888944039210000737e-03 1.279793233082706791e+02 1.024041380813493518e+01
1.856090187264436642e+00 1.913060858845453587e-03 1.278654545454545399e+02 1.053253911292472900e+01
1.862531947297203283e+00 1.788974026913770074e-03 1.279018867924528280e+02 1.086093918590837148e+01
1.868931787959941415e+00 1.835149539700427039e-03 1.289398907103825138e+02 1.175880527214945204e+01
1.875342409945594868e+00 1.782793697721218873e-03 1.304506517690875285e+02 1.279573026753152476e+01
1.881685992375486283e+00 1.813583446463527945e-03 1.323284132841328358e+02 1.240445929583273532e+01
1.888176611507502489e+00 1.945205006648250507e-03 1.332821869488536208e+02 1.163966128248397069e+01
1.894684395670122701e+00 1.921537496908314263e-03 1.345116279069767415e+02 1.004535208308734084e+01
1.901176782548104516e+00 1.886986723452953362e-03 1.348327402135231239e+02 1.023314605338811489e+01
1.907561981128558237e+00 1.795440373499332084e-03 1.352937956204379475e+02 1.147012882636035513e+01
1.913985041606118376e+00 1.828239138046576940e-03 1.361017543859649095e+02 1.172163990682460799e+01
1.920403381422240097e+00 1.786024996940504313e-03 1.365634057971014386e+02 1.101763607655453292e+01
1.926716413297410169e+00 1.834639747803229817e-03 1.357064056939501882e+02 9.437211813157428963e+00
1.933271554332125497e+00 1.965820526812752777e-03 1.335690235690235568e+02 8.340324245128034164e+00
1.939792573083097382e+00 1.907526115978609412e-03 1.308045375218150070e+02 7.877875966157309229e+00
1.946288570836251841e+00 1.883695634446648113e-03 1.285724020442930282e+02 7.849331324417388345e+00
1.952655684029843908e+00 1.737190040939992066e-03 1.260831826401446705e+02 8.561473988495466259e+00
1.958969978021109171e+00 1.827434973414125523e-03 1.243242320819112621e+02 8.695917222592578710e+00
1.965496063115082181e+00 1.854230162972571750e-03 1.229222972972972912e+02 9.190674251522004568e+00
1.971963975922738088e+00 1.884120710564727479e-03 1.219777397260273943e+02 9.262781650106070686e+00
1.978442510441045021e+00 1.957066319931451050e-03 1.215370675453047795e+02 9.059791598151543113e+00
1.984931097981023740e+00 1.843590323278294961e-03 1.216974358974358950e+02 9.029973222148784728e+00
1.991287308585444338e+00 1.815152065882439042e-03 1.208364565587734205e+02 9.247048084276135782e+00
1.997701973476069481e+00 1.833321787203764366e-03 1.200946843853820667e+02 9.448382033301097493e+00
2.004164133665459424e+00 1.816322146449814287e-03 1.198347245409015045e+02 9.493735079852797298e+00
2.010465304371688244e+00 1.793999045974344238e-03 1.196221837088388185e+02 9.416536418173789613e+00
2.016906033528098163e+00 1.989616449670199121e-03 1.192863849765258237e+02 9.479396811158380842e+00
2.023555996358446407e+00 1.897180052363281293e-03 1.189514563106796174e+02 9.665564199963196046e+00
2.029968694217374470e+00 1.807083598350285245e-03 1.189765886287625420e+02 1.005541908087503877e+01
2.036339422929389187e+00 1.823287213829230622e-03 1.189627228525121581e+02 9.810944286524646785e+00
2.042808231593590484e+00 1.819045180469573350e-03 1.189366883116883145e+02 9.787802800251091284e+00
2.049121403930300289e+00 1.816823929832920258e-03 1.191789297658862807e+02 9.653619198005157997e+00
2.055546024436551544e+00 1.958593688934813937e-03 1.195108024691357969e+02 9.941606918666916926e+00
2.062179187475123410e+00 1.909374836257744399e-03 1.196406250000000000e+02 9.952777907998225260e+00
2.068587893715514436e+00 1.782255124468116103e-03 1.199492635024549969e+02 1.009750957224123447e+01
2.074943470461427353e+00 1.803325004765888358e-03 1.205134706814580028e+02 9.961427109767734933e+00
2.081348551495329602e+00 1.811685209211536278e-03 1.206607999999999947e+02 9.621870953198241594e+00
2.087807581420585645e+00 1.934124239786214495e-03 1.205650842266462490e+02 9.175592582571368894e+00
2.094354049547901386e+00 1.919763106963207067e-03 1.203542944785276063e+02 7.958626938442627363e+00
2.100814970511138302e+00 1.841726384006937703e-03 1.194544025157232738e+02 7.251234125656218055e+00
2.107147425483176129e+00 1.793021693532189254e-03 1.180914826498422769e+02 7.282144609163438531e+00
2.113573117004156288e+00 1.831442330790634650e-03 1.168519083969465697e+02 7.485506303191233002e+00
2.119956773712852627e+00 1.806996690666118864e-03 1.155411392405063253e+02 7.879278174767009091e+00
2.126392549358501416e+00 1.961143276791299343e-03 1.153544117647058869e+02 9.097748685354442699e+00
2.133022499541108896e+00 1.914261261225060897e-03 1.172352071005917225e+02 1.264331086317971398e+01
2.139480964562213483e+00 1.786119367506160778e-03 1.218837209302325562e+02 1.823983895918205533e+01
2.145796782645738254e+00 1.799418587043424183e-03 1.291987767584097924e+02 2.297709795149126322e+01
2.152165366120878165e+00 1.825425695775702338e-03 1.370469696969697111e+02 2.272278895164602375e+01
2.158655754564665852e+00 1.929951649106770133e-03 1.452529069767441854e+02 1.719921100361397848e+01
2.165204964825616862e+00 1.913631523374921799e-03 1.503377192982456165e+02 1.052519426286554349e+01
2.171687233764930003e+00 1.836559742283269984e-03 1.499244444444444468e+02 9.016287411297817300e+00
2.178057454997971210e+00 1.770075738143539208e-03 1.466404833836857904e+02 9.859057786426861369e+00
2.184381886656512783e+00 1.819268068842387707e-03 1.424814264487370110e+02 8.897342479928379788e+00
2.190889596552291430e+00 1.941484629964972597e-03 1.363977433004231443e+02 7.912268787530089220e+00
2.197415493733709368e+00 1.880394352234131695e-03 1.275805515239477472e+02 6.612799299439381606e+00
2.203858495652105454e+00 1.844129167940211774e-03 1.187901591895803222e+02 4.962575314352465128e+00
2.210218428929338064e+00 1.776952575370011446e-03 1.126553254437869782e+02 5.924743291301301618e+00
2.216548686487991304e+00 1.820372229284925253e-03 1.093933236574745962e+02 6.653763801954069912e+00
2.223054582631938558e+00 1.937499342758612587e-03 1.072320441988950250e+02 7.006335788853292001e+00
2.229555406010463425e+00 1.871681269043944497e-03 1.058655221745350445e+02 7.830210433407653881e+00
2.236023148886606471e+00 1.876509468722661325e-03 1.051432545201668916e+02 8.469481171819760235e+00
2.242466908337517939e+00 1.781536512235300631e-03 1.050273381294963997e+02 8.472851941328126912e+00
2.248784053696174290e+00 1.815619011182786555e-03 1.044548063127690085e+02 8.354354460873228305e+00
2.255261034229438355e+00 1.958337742873136802e-03 1.036765100671140942e+02 7.971485713352099545e+00
2.261752977112598817e+00 1.833135357339661826e-03 1.027312588401697298e+02 7.691328576627879166e+00
2.268193030407839927e+00 1.856919733580766289e-03 1.020586630286493914e+02 7.679861170797562586e+00
2.274620661936892052e+00 1.792548502283534354e-03 1.017461212976022580e+02 7.744149978701208248e+00
2.281045196159239286e+00 1.907452264699439036e-03 1.016810810810810750e+02 8.566939613784967378e+00
2.287566856146262317e+00 1.925687837049752790e-03 1.023542780748663148e+02 9.772784333066772078e+00
2.294017676381079784e+00 1.818149611703329506e-03 1.035858725761772803e+02 1.108471294987997169e+01
2.300373896127871021e+00 1.814054264739159471e-03 1.056949384404924785e+02 1.148809329549062852e+01
2.306733295622487301e+00 1.809288305020508025e-03 1.081167582417582480e+02 1.020296716079164767e+01
2.313210233147671158e+00 1.927057466226796351e-03 1.097734375000000000e+02 8.061478582142269644e+00
2.319750633036068876e+00 1.886628064392380537e-03 1.105880794701986787e+02 7.183819271858885358e+00
2.326167810919689938e+00 1.805281422939875990e-03 1.109215155615696915e+02 8.668950505465739198e+00
2.332524891627314911e+00 1.808157875111407291e-03 1.112338709677419359e+02 1.090369254822715384e+01
2.339018828040365428e+00 1.927078730268403945e-03 1.127923076923076877e+02 1.279168129893990447e+01
2.345529090540556361e+00 1.892646505679497623e-03 1.146832460732984345e+02 1.268775375243686554e+01
2.351902562585342693e+00 1.808634088653226840e-03 1.155614973262032095e+02 1.123888236281236352e+01
2.358283426411155403e+00 1.828495513811564770e-03 1.149530638852672695e+02 9.084799930832422987e+00
2.364665150299146479e+00 1.824483169818866225e-03 1.124278145695364231e+02 7.461800619704617610e+00
2.371140522023317931e+00 1.956229962378429419e-03 1.095930521091811443e+02 6.325155000986293352e+00
2.377698484074287411e+00 1.857249505322706908e-03 1.068205128205128176e+02 6.528997675821887725e+00
2.384135550776628865e+00 1.806484998011118103e-03 1.030296774193548401e+02 8.069644201835956210e+00
2.390495270780528703e+00 1.815820546892564329e-03 1.017047353760445674e+02 7.756846974076813339e+00
2.396907059408651008e+00 1.904650256318906557e-03 1.001450068399452817e+02 8.155531075044304856e+00
2.403395490390968892e+00 1.861409897307351969e-03 9.941126760563379605e+01 8.433444581099676540e+00
2.409868588547004364e+00 1.847911660654164229e-03 9.923721590909090651e+01 9.179601750302852636e+00
2.416315494183244539e+00 1.848423108511250412e-03 9.997971014492753739e+01 9.720268354691063095e+00
2.422721222723576151e+00 1.879130934971403807e-03 1.006482558139534831e+02 9.740195290977579745e+00
2.429135064156228374e+00 1.862177758942303550e-03 1.017873900293255076e+02 8.858943402992347060e+00
2.435558328952115659e+00 1.829358714226044739e-03 1.019482248520710073e+02 7.639543661697737242e+00
2.441961929587736613e+00 1.826990787003958654e-03 1.003892215568862269e+02 6.784888944498015384e+00
2.448435267415004279e+00 1.916283866918213176e-03 9.753197674418605345e+01 6.366339133729609578e+00
2.454898310690642571e+00 1.851262751470384186e-03 9.511212121212120962e+01 6.488312937507171974e+00
2.461278332832209870e+00 1.841207405127180587e-03 9.296978851963746138e+01 6.697878723456218708e+00
2.467732767309350983e+00 1.860175811866779036e-03 9.112462462462463009e+01 6.588252897955479526e+00
2.474317234005322774e+00 1.907302378477835920e-03 8.847353361945636152e+01 7.173382477878431196e+00
2.480763678027650521e+00 1.850982492662076430e-03 8.739777468706536467e+01 7.283417465586200734e+00
2.487114426650852028e+00 1.791691956921820849e-03 8.701264044943820863e+01 7.897686590267822382e+00
2.493514277050582706e+00 1.905910091373927331e-03 8.772391017173050898e+01 9.173580837628021456e+00
2.500016016455529844e+00 1.897218154373805617e-03 8.938200782268579303e+01 1.000224575276947547e+01
2.506504299072060071e+00 1.823698874814003905e-03 9.130039525691699964e+01 1.023973571205851130e+01
2.512828968428921783e+00 1.779539787674511890e-03 9.348721399730821702e+01 1.015420244947322104e+01
2.519262120792594928e+00 1.938201810876334251e-03 9.628019925280199232e+01 1.112647966106239394e+01
2.525775074220281358e+00 1.871497825325404334e-03 9.919872611464968770e+01 1.214688224800045369e+01
2.532197693037325781e+00 1.807973308604888651e-03 1.023717948717948758e+02 1.232916862888787968e+01
2.538545427775757091e+00 1.816891897915347926e-03 1.047220077220077172e+02 1.067760111662541433e+01
2.545039371368973402e+00 1.965732421291352915e-03 1.039323040380047445e+02 7.327029453379720003e+00
2.551577586228050976e+00 1.818913119815899733e-03 9.955050505050505194e+01 5.765353930000269855e+00
2.557912035390546901e+00 1.811160408138717511e-03 9.245488721804511556e+01 4.931654547438694358e+00
2.564418003384666633e+00 1.924750488034227642e-03 8.521369539551358230e+01 5.002423831489635653e+00
2.570930014234638072e+00 1.852202887801034569e-03 8.080487804878049474e+01 6.538216487422764622e+00
2.577333690207623373e+00 1.816621428331073769e-03 7.907579462102690115e+01 8.163846033807416802e+00
2.583698900290759326e+00 1.840143410056186736e-03 7.926894865525672174e+01 9.570360995795919479e+00
2.590116643848396460e+00 1.922552353981257615e-03 8.065227537922987722e+01 9.952807566604723988e+00
2.596553429180498362e+00 1.801710981220896188e-03 8.152669902912622035e+01 9.066163174640587741e+00
2.602955615407046341e+00 1.842317350104424401e-03 8.206117647058823650e+01 7.659586841875693608e+00
2.609495359574187212e+00 1.911716238635802895e-03 8.093500570125426918e+01 6.666192238687606242e+00
2.615974071523933020e+00 1.844748521006626301e-03 7.884823529411764298e+01 6.180640609119764761e+00
2.622378270172453618e+00 1.832507040312451657e-03 7.679181286549707863e+01 6.674533472793676481e+00
2.628819659223405658e+00 1.883705983027747803e-03 7.522873563218391268e+01 7.143899442666327815e+00
2.635224897504864661e+00 1.872415782458078902e-03 7.400804597701149135e+01 7.404483863991645265e+00
2.641639659702591736e+00 1.816527212418568051e-03 7.295040369088812326e+01 7.202605718607343555e+00
2.648064596936881454e+00 1.851525790120274028e-03 7.233979475484606780e+01 7.214507820980303521e+00
2.654540339871488630e+00 1.920962172705038655e-03 7.209130913091308912e+01 7.533534318653147821e+00
2.661017435989672553e+00 1.820997431850269717e-03 7.146171428571427953e+01 7.599769104978094880e+00
2.667377750780578261e+00 1.839233884157700843e-03 7.131782065834279649e+01 8.002860444654777083e+00
2.673833255939705111e+00 1.922629864361171097e-03 7.154929577464788792e+01 8.241352297418874429e+00
2.680310332336410362e+00 1.829470795604572599e-03 7.152295632698768202e+01 7.894765750902077883e+00
2.686679530094181256e+00 1.809753184080302099e-03 7.159641255605380650e+01 7.789862399466261245e+00
2.693172569770623248e+00 1.920456143785719515e-03 7.124207188160676196e+01 7.446270375586407475e+00
2.699710169678059213e+00 1.845827250732203417e-03 7.011777535441657960e+01 7.059445209841188174e+00
2.706108723802718607e+00 1.808001129835774996e-03 6.928128460686600931e+01 7.170277876220565894e+00
2.712552861480932442e+00 1.909490143508341294e-03 6.900000000000000000e+01 7.382018993860099521e+00
2.719028861112676942e+00 1.848278151304674159e-03 6.896540540540540576e+01 7.872350408207077876e+00
2.725349625855669977e+00 1.780111837505188701e-03 6.919533851276359826e+01 8.152188362313225412e+00
2.731792001493120292e+00 1.927874637693306574e-03 6.973258196721312174e+01 8.480264968131784542e+00
2.738310186615081410e+00 1.835670255000661395e-03 7.008413205537806334e+01 8.265330912965985988e+00
2.744685257899765141e+00 1.793617037467074102e-03 7.065086206896552312e+01 8.066235112658652895e+00
2.751066800196758422e+00 1.878288467704576767e-03 7.211111111111111427e+01 8.352326364272283143e+00
2.757601512830000434e+00 1.862141664063760894e-03 7.377237569060773126e+01 9.110547694930790641e+00
2.764058068263966828e+00 1.836587841443396716e-03 7.629726651480638111e+01 1.019980965397847683e+01
2.770529172478649382e+00 1.887167826034379927e-03 8.042342342342342931e+01 1.168636767488837513e+01
2.776955143396238501e+00 1.821333560803167642e-03 8.353183962264151319e+01 1.111839544095196075e+01
2.783316304171964184e+00 1.843620978786204888e-03 8.576650943396226978e+01 9.052880247478528375e+00
2.789755116199374552e+00 1.895104686621155434e-03 8.566011560693641513e+01 6.056166217437626287e+00
2.796202065730379438e+00 1.823396814250311405e-03 8.211257485029939573e+01 4.863838278675017612e+00
2.802598215598055997e+00 1.839199823105454800e-03 7.736407185628742411e+01 4.556588469030495858e+00
2.809058618291326859e+00 1.891542357478581855e-03 7.349941520467835687e+01 5.101685207507357767e+00
2.815539484174618412e+00 1.814857361145085640e-03 7.058616504854369111e+01 5.671045995044918797e+00
2.821989463872399906e+00 1.865090624993398201e-03 6.901792114695339819e+01 6.256537713657336575e+00
2.828483713597702565e+00 1.883630524017047489e-03 6.804523809523809064e+01 6.123367245007728776e+00
2.834900904292738222e+00 1.791954038426357698e-03 6.759000000000000341e+01 6.322292898941018535e+00
2.841279989216558999e+00 1.876324795384782303e-03 6.773671497584541612e+01 6.594934795078773782e+00
2.847767858763501359e+00 1.886990809494324501e-03 6.713888888888888573e+01 6.205242316470739539e+00
2.854224446368732959e+00 1.845718501710050556e-03 6.638337468982629730e+01 5.890746475543098271e+00
2.860652227376856871e+00 1.895283512592607677e-03 6.610922330097086785e+01 6.326308829451738447e+00
2.867113210476443186e+00 1.859648482407798373e-03 6.625990099009901257e+01 6.663191402746903691e+00
2.873572830144707879e+00 1.886954548921765396e-03 6.705528255528255954e+01 6.776310771735928995e+00
2.879995266294152589e+00 1.874768549312584749e-03 6.750061957868649642e+01 6.627011892944730143e+00
2.886377499349285003e+00 1.822646243021190660e-03 6.766962025316455254e+01 5.911846132263238296e+00
2.892826601299819611e+00 1.901257081905588812e-03 6.743863912515188019e+01 5.328582448002307181e+00
2.899287209408602628e+00 1.837036175435869181e-03 6.671572327044025030e+01 5.601265488457819686e+00
2.905651471559458798e+00 1.820821310380915442e-03 6.660101651842440162e+01 6.285591943317306196e+00
2.912064357739847953e+00 1.885695667761764669e-03 6.744963144963145396e+01 6.694535939907865441e+00
2.918524733004972394e+00 1.831846772134888184e-03 6.839190897597977425e+01 6.852140780986290203e+00
2.925008101889499557e+00 1.898964803942654149e-03 6.955907429963458810e+01 7.242278762215058840e+00
2.931494571104498625e+00 1.860470468068603543e-03 7.077750309023485897e+01 6.795687578562555231e+00
2.937893251398651540e+00 1.817351826735809622e-03 7.180175658720200715e+01 6.372037338726866729e+00
2.944305546311252186e+00 1.880927000690213848e-03 7.273405535499398411e+01 6.172116200954507192e+00
2.950769139483569781e+00 1.826098071515048831e-03 7.260196560196560256e+01 6.104700611702785551e+00
2.957217893682505760e+00 1.858471812583063982e-03 7.296610169491525255e+01 6.218968187227203792e+00
2.963641657319503686e+00 1.840162297927921053e-03 7.289815950920245768e+01 6.312850405632406847e+00
2.970043842149071800e+00 1.832295957600710810e-03 7.252722772277228103e+01 6.266555125495075096e+00
2.976510225225458495e+00 1.909562939757382871e-03 7.277078384798099364e+01 6.117566706361229123e+00
2.983008757323797777e+00 1.820848808918005624e-03 7.212019826517968113e+01 5.487335985365388247e+00
2.989442833175567138e+00 1.860876473636659213e-03 7.122787878787879379e+01 5.006224812040194649e+00
2.995851322080832713e+00 1.818248084975540883e-03 6.967826086956522147e+01 4.635717104816083456e+00
3.002288071879581022e+00 1.866109072499165002e-03 6.854080389768574832e+01 4.670954106987142751e+00
3.008748785923475388e+00 1.879638502675874765e-03 6.712363636363636488e+01 4.939207730269581376e+00
3.015199648864150372e+00 1.825469582085792030e-03 6.581965174129352647e+01 5.102514885037177095e+00
3.021614952218953931e+00 1.867358907394168870e-03 6.521333333333333826e+01 5.261831305436222017e+00
3.028035269137849372e+00 1.805619228951016193e-03 6.465957446808511122e+01 5.557534302335527698e+00
3.034481983401863037e+00 1.885823396422961745e-03 6.500481347773767027e+01 7.329529608608852165e+00
3.040948636384726900e+00 1.846244746713175374e-03 6.545308641975309172e+01 1.008532550692859964e+01
3.047399548284976056e+00 1.866575050031695892e-03 6.588372093023255616e+01 9.432997450050489618e+00
3.053818065407082116e+00 1.858882463793821993e-03 6.567321867321867046e+01 9.165603724179053557e+00
3.060168791671987076e+00 1.792825745411367891e-03 6.486386768447836459e+01 7.417510548376185398e+00
3.066596020837712544e+00 1.927764682785730512e-03 6.468957345971564621e+01 5.760561886338279258e+00
3.073140751332767540e+00 1.856356834428901387e-03 6.479604449938194932e+01 6.039030794595144691e+00
3.079593295930210139e+00 1.886716362797553155e-03 6.588848484848485043e+01 6.384225739430822166e+00
3.086017154762366044e+00 1.830431539716442747e-03 6.734874999999999545e+01 6.569346190832082044e+00
3.092486513109037993e+00 1.905108961471654438e-03 6.776978417266187193e+01 6.678428025641478527e+00
3.098964516853627060e+00 1.852397442341169754e-03 6.615822002472188501e+01 5.934948768200303704e+00
3.105440922044128804e+00 1.880034527507769499e-03 6.322909090909090679e+01 4.472804138289996345e+00
3.111821301298671738e+00 1.810318297736169049e-03 6.084150943396226552e+01 4.187863822267039460e+00
3.118233335063332667e+00 1.868901341642052608e-03 5.943361753958586746e+01 4.532877027395481484e+00
3.124683867316949026e+00 1.865189586864977357e-03 5.838705738705738923e+01 4.686078134787726945e+00
3.131144652615997170e+00 1.844489775254080271e-03 5.745185185185184906e+01 4.718504951818779602e+00
3.137527951480249655e+00 1.850518740970626434e-03 5.695202952029520560e+01 4.791608231845859045e+00
3.143946084488824955e+00 1.842734159383119935e-03 5.624907063197026247e+01 4.656634535427673249e+00
3.150358822729363073e+00 1.875642417003805899e-03 5.571359223300970598e+01 4.801916253725720729e+00
3.156784286039504561e+00 1.823981601210612454e-03 5.496000000000000085e+01 4.716418132439068600e+00
3.163270120323041557e+00 1.930117905744787839e-03 5.487382075471698073e+01 4.760090157094376551e+00
3.169756141428992979e+00 1.817110211355118556e-03 5.429145728643216273e+01 4.727854136096387272e+00
3.176136715832639901e+00 1.869400486556539428e-03 5.438545454545454305e+01 4.666295774320732725e+00
3.182603852824878121e+00 1.855271636042648588e-03 5.420613496932515574e+01 4.644090573156844926e+00
3.189050645908320547e+00 1.867823016262818358e-03 5.441212121212121389e+01 4.789165918282372481e+00
3.195475202712392715e+00 1.830177604982121797e-03 5.404094292803970490e+01 4.414291282463155497e+00
3.201930699474990760e+00 1.890160737295187680e-03 5.379330943847072888e+01 4.225008867571300897e+00
3.208380198036255848e+00 1.818817371399450607e-03 5.313200498132005123e+01 4.516076096435244658e+00
3.214769441202507405e+00 1.856295446885927562e-03 5.252548543689320582e+01 4.455278081181678118e+00
3.221219946103295317e+00 1.854520719188760538e-03 5.156356968215158787e+01 4.238137182797194313e+00
3.227683765295594753e+00 1.874065427032763596e-03 5.093501805054151532e+01 4.227784152020623409e+00
3.234131017772435612e+00 1.840716304877563787e-03 5.072996300863132291e+01 4.234290158528080994e+00
3.240599979113187423e+00 1.901252405176113557e-03 5.078647686832740504e+01 4.289128345136396625e+00
3.247028333220890239e+00 1.799593188369970169e-03 5.050817610062892982e+01 4.119169030116989205e+00
3.253443203786942295e+00 1.907653420062672836e-03 5.050707547169811562e+01 3.964831336475726165e+00
3.259883502116921683e+00 1.795580006981134817e-03 4.969269521410579671e+01 3.991601751602400050e+00
3.266300345605878341e+00 1.923600185575663262e-03 4.957678780773739646e+01 4.161425772781391252e+00
3.272853483066015201e+00 1.856140221165968399e-03 4.937926829268293005e+01 4.004331013410522111e+00
3.279208055010873757e+00 1.838273880463746476e-03 4.933742331288343763e+01 4.125269429724056636e+00
3.285677511815711327e+00 1.882917816817657360e-03 4.979116945107398351e+01 4.283821736198738961e+00
3.292103848527159204e+00 1.835553428200827411e-03 5.021909424724601934e+01 4.362407735798433883e+00
3.298586108799094418e+00 1.888317585372828586e-03 5.008907363420427572e+01 4.124604429470389633e+00
3.305031100311709658e+00 1.850386223069815962e-03 4.972594397076735362e+01 3.967447219430757954e+00
3.311493553422723224e+00 1.868513817595845007e-03 4.940692124105012084e+01 3.864909570496841695e+00
3.317903636599865536e+00 1.824831080609758517e-03 4.879877300613497226e+01 3.866768525456752759e+00
3.324331097200103002e+00 1.867240715589447552e-03 4.819642857142856940e+01 3.963041417763836005e+00
3.330698991454875468e+00 1.802295415888940022e-03 4.767705735660847921e+01 4.063252218901964419e+00
3.337129369178693850e+00 1.924555404658041986e-03 4.748199767711962949e+01 4.018027460201341938e+00
3.343680207265053550e+00 1.861922247852822480e-03 4.752834740651387335e+01 3.788770179528604398e+00
3.350044083295126374e+00 1.835162792558274860e-03 4.769380315917375412e+01 3.786612633482887791e+00
3.356505604070456616e+00 1.871227406804753775e-03 4.804028436018957393e+01 3.790839328605296377e+00
3.362916001860436488e+00 1.833654571443432820e-03 4.753471376370280410e+01 3.943232283579459097e+00
3.369285096640512123e+00 1.875337531839301689e-03 4.698658536585365653e+01 4.341214709236969505e+00
3.375802434903234950e+00 1.848095989791553092e-03 4.608930987821380398e+01 4.039754219187420503e+00
3.382214916359785661e+00 1.843501739730700950e-03 4.601123595505617914e+01 3.862074555368970152e+00
3.388621595555129762e+00 1.837214591020290208e-03 4.613391557496360917e+01 3.791090006729489037e+00
3.395087870480640202e+00 1.897809126909797642e-03 4.664680232558139750e+01 3.897640119250206148e+00
3.401600099274715294e+00 1.862825267528726196e-03 4.712368024132729971e+01 3.737822238100516170e+00
3.408008587822927371e+00 1.829521772960810344e-03 4.722515527950310599e+01 3.522240261430436004e+00
3.414429009776510870e+00 1.863403552598411495e-03 4.758359133126934637e+01 3.364026055108216173e+00
3.420895508941175223e+00 1.876279003669552520e-03 4.754147104851330141e+01 3.451472772727743887e+00
3.427361199308996742e+00 1.871984655860910217e-03 4.797943037974683733e+01 4.239788929491648872e+00
3.433789816721534383e+00 1.835455874914732619e-03 4.922402597402597735e+01 4.419611775855791791e+00
3.440207803416203358e+00 1.864980166185075923e-03 5.072330097087378675e+01 4.356746761220831488e+00
3.446682336316245543e+00 1.886495457043324163e-03 5.117235772357723533e+01 3.878836142395270414e+00
3.453142116062292821e+00 1.850491205141300763e-03 5.101008403361344534e+01 3.612524799678055398e+00
3.459552608189105705e+00 1.840426776601197887e-03 5.100684931506849296e+01 3.594844923031006001e+00
3.466037827277117955e+00 1.895781883946169978e-03 5.063667232597622814e+01 3.569557321829738950e+00
3.472473653977210972e+00 1.828931698347952819e-03 4.999284436493739037e+01 3.814566803180882371e+00
3.478868831430015351e+00 1.849798838882201271e-03 4.973392857142857082e+01 3.620647457320864682e+00
3.485296939778874226e+00 1.846836384750711896e-03 5.029120879120878840e+01 3.557221672520902711e+00
3.491740378822062674e+00 1.892374048568714641e-03 5.105282331511839544e+01 3.637619907619165094e+00
3.498222076309955408e+00 1.850392789083453492e-03 5.196428571428571530e+01 3.638320926222862184e+00
3.504611891581455030e+00 1.828338000025509641e-03 5.306213592233009990e+01 3.786299724622343543e+00
3.511032309223517167e+00 1.894740202114146826e-03 5.402671755725190650e+01 3.506170316686031185e+00
3.517510811405253346e+00 1.847376399887671770e-03 5.438142292490118734e+01 3.394300849622054805e+00
3.523886222494890585e+00 1.819823680849573695e-03 5.227198364008179965e+01 3.097957028350712072e+00
3.530333766363422221e+00 1.913949961282706506e-03 4.936237623762376359e+01 2.766864588839721417e+00
3.536838628960300657e+00 1.837400593869444173e-03 4.697083333333333144e+01 2.718211153497830157e+00
3.543212277439104163e+00 1.824314092004992007e-03 4.518629550321199417e+01 2.549710730842158490e+00
3.549634251627681092e+00 1.895848120010211945e-03 4.400630252100840067e+01 2.752763086656071945e+00
3.556117060308725097e+00 1.842284182035823720e-03 4.347598253275108959e+01 3.221011731259371125e+00
3.562580790750173865e+00 1.873137250446494902e-03 4.273684210526315752e+01 3.018640151732393306e+00
3.569027121761189303e+00 1.864198494303047999e-03 4.218018018018018012e+01 2.694574865666130137e+00
3.575415228040989657e+00 1.829283293316363293e-03 4.208120649651971945e+01 2.737654837972729460e+00
3.581824267593239686e+00 1.860007523854312686e-03 4.209280742459396407e+01 3.149183413635452844e+00
3.588330065081806630e+00 1.895947895659538546e-03 4.212761020881670504e+01 2.969336348362616285e+00
3.594804804657118602e+00 1.838793340235311087e-03 4.190975609756097242e+01 3.051417396246438152e+00
3.601203120605045882e+00 1.866742151695356807e-03 4.178921568627450966e+01 2.774914662486585470e+00
3.607629953215138574e+00 1.849946976811765471e-03 4.175438596491228083e+01 2.560390502468054663e+00
3.614090854913730499e+00 1.868416365547433599e-03 4.215151515151514872e+01 2.829793067201795242e+00
3.620574720227974552e+00 1.873754476683962313e-03 4.285089974293059356e+01 2.750182552871822672e+00
3.627004027770476924e+00 1.835919208150294619e-03 4.379411764705882604e+01 2.546330681016731212e+00
3.633382280898821648e+00 1.849285921997263250e-03 4.342276422764227561e+01 2.898215292675426547e+00
3.639818201334091174e+00 1.872714577785467623e-03 4.250408719346049224e+01 2.941874671736557811e+00
3.646271849872324999e+00 1.848931603973280732e-03 4.157022471910112671e+01 2.873168496616274492e+00
3.652754025121335069e+00 1.886957975833729447e-03 4.049438202247191043e+01 2.458351476769633059e+00
3.659208746855755479e+00 1.834720162372708565e-03 4.007079646017699304e+01 2.592462230613228336e+00
3.665582835495777569e+00 1.840575612045432024e-03 3.973573573573573725e+01 2.485078883758006896e+00
3.672040343112283445e+00 1.886479483533069204e-03 3.951497005988024114e+01 2.441495148911239976e+00
3.678529717319615866e+00 1.858096912976999176e-03 3.929192546583850998e+01 2.402024852140642430e+00
3.684932562337432049e+00 1.835190244932949138e-03 3.910289389067524013e+01 2.324073849619616272e+00
3.691340469028411508e+00 1.865394116403416890e-03 3.843689320388349273e+01 2.311121493741446375e+00
3.697825917576230470e+00 1.878575472322643403e-03 3.808552631578947256e+01 2.148945459026959881e+00
3.704288468942850354e+00 1.854378416201764085e-03 3.776450511945392208e+01 2.284026262350114855e+00
3.710695071708606907e+00 1.843173339766954189e-03 3.762807017543859445e+01 2.330728000697387170e+00
3.717119980493126530e+00 1.858275420549158159e-03 3.797500000000000142e+01 2.541653005427767731e+00
3.723579054116692877e+00 1.875547371405369762e-03 3.847636363636363654e+01 2.317579244323481724e+00
3.730020297411832164e+00 1.843995263516665269e-03 3.928409090909090651e+01 2.230111826866669755e+00
3.736426917509388268e+00 1.851423495632689448e-03 3.940697674418604635e+01 2.537833430649744315e+00
3.742862848593606184e+00 1.866246695943705233e-03 3.884584980237153928e+01 2.233268039166436569e+00
3.749304155234212121e+00 1.850203366498975400e-03 3.823770491803279015e+01 2.308617870949218887e+00
3.755769545342233950e+00 1.881542671327423493e-03 3.806639004149377570e+01 2.334127245335479994e+00
3.762207580716425692e+00 1.832713059301602828e-03 3.801315789473684248e+01 2.229166396993451649e+00
3.768650259547695391e+00 1.882711660849632198e-03 3.740528634361233173e+01 2.156966934295562854e+00
3.775101190588130873e+00 1.841328330998877110e-03 3.642325581395348877e+01 2.131608167606212856e+00
3.781544745172108257e+00 1.876261972947606757e-03 3.658018867924528195e+01 2.276020381922111202e+00
3.787984350729691752e+00 1.841817734800533721e-03 3.614925373134328623e+01 2.106223473979793148e+00
3.794443778523244770e+00 1.888119406057294294e-03 3.571859296482411850e+01 2.059369810172551052e+00
3.800887998049732097e+00 1.829598834944004332e-03 3.580107526881720759e+01 1.827862110124646167e+00
3.807319286871066577e+00 1.879776389761753357e-03 3.590217391304347672e+01 1.763367123030827210e+00
3.813728772969168901e+00 1.816176537965013323e-03 3.556725146198830600e+01 1.866202730018108769e+00
3.820127884734960233e+00 1.870328496078344947e-03 3.491124260355029918e+01 1.906978591144035784e+00
3.826558902351690605e+00 1.840091099185570860e-03 3.477358490566037830e+01 2.035259384995013132e+00
3.832976717434447789e+00 1.862754303780558536e-03 3.551948051948051699e+01 1.996687254743090723e+00
3.839467489846226655e+00 1.881591717002498556e-03 3.676351351351351582e+01 2.012606361947595790e+00
3.845958738964208923e+00 1.872212223355807642e-03 3.681428571428571672e+01 2.100995876595046941e+00
3.852379013358490312e+00 1.829949564810406546e-03 3.699230769230769056e+01 2.133946534159392172e+00
3.858770514458473411e+00 1.860590576749386821e-03 3.735199999999999676e+01 2.142641360564105923e+00
3.865201312403456324e+00 1.846877382617491750e-03 3.730769230769230660e+01 2.621787035283879685e+00
3.871669834970288271e+00 1.885989225799452511e-03 3.653571428571428470e+01 2.696546828059613432e+00
3.878154213609482870e+00 1.855219997046820071e-03 3.632038834951456607e+01 2.637937508581268187e+00
3.884570297975108666e+00 1.842018581107749764e-03 3.671578947368421098e+01 3.202042284580854936e+00
3.891030549524630455e+00 1.892572859664069882e-03 3.867777777777777715e+01 4.137005537198953142e+00
3.897480132485925619e+00 1.830223622249431631e-03 3.923749999999999716e+01 3.201025226392319567e+00
3.903837790606199842e+00 1.833538786489578550e-03 3.806849315068492956e+01 2.528538555098577501e+00
3.910297958451704581e+00 1.898394991490752427e-03 3.654411764705882604e+01 2.710035176421044412e+00
3.916760076293909876e+00 1.823271174774054393e-03 3.562068965517241281e+01 2.097929447504444767e+00
3.923205856217289345e+00 1.907998375040481686e-03 3.528301886792452535e+01 1.883582174600504588e+00
3.929647757040283906e+00 1.804292177573046203e-03 3.488372093023255616e+01 1.948776154896430635e+00
3.936002968608691699e+00 1.864030959871269735e-03 3.464864864864864558e+01 1.853273809506354119e+00
3.942404476100300759e+00 1.828532384993888883e-03 3.513793103448276156e+01 1.747769089306784318e+00
3.948822507765122225e+00 1.871711324841116540e-03 3.686363636363636687e+01 2.061051645228115348e+00
3.955157590966607906e+00 1.825831164639231917e-03 3.792857142857143060e+01 1.979486637221573808e+00
3.961507824082775464e+00 1.968979546566614058e-03 4.028571428571428470e+01 3.697765458727081622e+00
