# q qerr I(q) I(q)err
8.294532032279089417e-03 3.215448162638725495e-03 2.500000000000000000e-01 1.264808541344698334e+01
1.547771440847061503e-02 1.298069176105710962e-03 2.500000000000000000e-01 4.564354645876383954e-01
2.114153426598287117e-02 1.953452460535632252e-03 2.500000000000000000e-01 4.472135954999579277e-01
2.708829541553820289e-02 1.932501425123600049e-03 2.083333333333333426e-01 4.166666666666665741e-01
3.424760286937652415e-02 2.393094809829984012e-03 1.590909090909090884e-01 3.706706006886384963e-01
4.134659872356089005e-02 1.444308516548141333e-03 8.333333333333332871e-02 2.805418038433910577e-01
4.709622292726145520e-02 1.633576272088444088e-03 7.499999999999999722e-02 2.669269563007830026e-01
5.289360403025952090e-02 1.994215660312892175e-03 1.875000000000000000e-01 3.952847075210474403e-01
5.941266175682404643e-02 2.038777625163953021e-03 5.999999999999999778e-02 2.400000000000000466e-01
6.623959740571712385e-02 2.014614798769268252e-03 3.703703703703703498e-02 1.906598174256851075e-01
7.251770781946841049e-02 1.767162065969994948e-03 2.916666666666666852e-01 6.802011548881042868e-01
7.836204892921720677e-02 1.794558473909566021e-03 5.700000000000000178e+00 1.812192042803410885e+01
8.476368586159346852e-02 2.173163639586968114e-03 6.284375000000000000e+01 2.129556615108676851e+02
9.171767809022127182e-02 2.151270969520740432e-03 5.245441176470587834e+02 1.387418314562978594e+03
9.840741527280037759e-02 1.879523288412654567e-03 1.607766666666666652e+03 3.731490797925140214e+03
1.046713563714864598e-01 1.717715818177843919e-03 2.857860000000000127e+03 5.229375430928629612e+03
1.108696467093386595e-01 1.978629817275711061e-03 2.226830188679245111e+03 3.792848181307906543e+03
1.174911181025048434e-01 2.151142134119994175e-03 1.101114754098360663e+03 1.824172317641734480e+03
1.240901985761322518e-01 1.682567093931450772e-03 5.422999999999999545e+02 7.584821790919017985e+02
1.302695169190241364e-01 1.981638030988197227e-03 2.935932203389830306e+02 3.933703958277782817e+02
1.366843399328758479e-01 1.885635125754002352e-03 2.633571428571428328e+02 3.142882609474743845e+02
1.431380625310322841e-01 2.037281709542672608e-03 2.350645161290322562e+02 2.722303580536045615e+02
1.497407916800755912e-01 2.013243134106564892e-03 2.359206349206349103e+02 2.634216405221660580e+02
1.560440161600273323e-01 1.800320108738214832e-03 2.345964912280701640e+02 2.556733221230352626e+02
1.626324968867556287e-01 2.166758397174068339e-03 2.401486486486486456e+02 2.476642101584843090e+02
1.693678508908615654e-01 1.711853084056604935e-03 2.478833333333333258e+02 2.576777725075339731e+02
1.755753172360756398e-01 1.940749690505284321e-03 2.627826086956521863e+02 2.544627338604918236e+02
1.819629297477835528e-01 1.792019476258344991e-03 2.809230769230769056e+02 2.714710790223558092e+02
1.883474920212158954e-01 1.982820530303366913e-03 3.294166666666666856e+02 3.190955733846894304e+02
1.949500334927739553e-01 1.985593967279970003e-03 5.876133333333333439e+02 5.333781322851547202e+02
2.014306324154557237e-01 1.750557958225071797e-03 1.249695652173913004e+03 1.126795368073674354e+03
2.076332073357673447e-01 1.865361520913360683e-03 2.130351351351351241e+03 1.761400499357842818e+03
2.140129245322099916e-01 1.882829286684015863e-03 2.039693333333333385e+03 1.767850806827318365e+03
2.204163405633874917e-01 1.951475208267544961e-03 1.279230769230769283e+03 1.106578366169054107e+03
2.268599176829277919e-01 1.954094669929957399e-03 5.862999999999999545e+02 5.303287553489813035e+02
2.335135695299082048e-01 1.986313139076756155e-03 3.607176470588235020e+02 3.117383884563629977e+02
2.400224779461884173e-01 1.823737618079871109e-03 3.208374999999999773e+02 2.616859215978192310e+02
2.464005577519743639e-01 1.894426896505377799e-03 3.111999999999999886e+02 2.490154920765325528e+02
2.528350385827773383e-01 1.829527638271931031e-03 3.121666666666666856e+02 2.469842831256902684e+02
2.590859102888302123e-01 1.817056121189442432e-03 3.110595238095237960e+02 2.475757643031619466e+02
2.654612130450557106e-01 1.918447197659697845e-03 3.109550561797752835e+02 2.477511159462139290e+02
2.718942366720529247e-01 1.942478483450333455e-03 3.219780219780219568e+02 2.421272468580399391e+02
2.784185743669774227e-01 1.921358219378808702e-03 3.175591397849462396e+02 2.466087512045255608e+02
2.849156375412667530e-01 1.882334819595186037e-03 3.373829787234042783e+02 2.431087138776421170e+02
2.911870294677750826e-01 1.766712284927822799e-03 3.460561797752808957e+02 2.472011139406399423e+02
2.976511517037133681e-01 2.019527329980297554e-03 4.263980582524271767e+02 2.478136059185382010e+02
3.043178155919494809e-01 1.919359421117726450e-03 7.142000000000000455e+02 2.970710723042552104e+02
3.108074081907638564e-01 1.815555258398614735e-03 1.492530612244898066e+03 3.813857511916182830e+02
3.170970610330232087e-01 1.826000353424227750e-03 2.327636363636363512e+03 2.441433290212973759e+02
3.235319739834495723e-01 1.908097576542081529e-03 2.211628571428571377e+03 2.426684617187103470e+02
3.300700059726238145e-01 1.867687188749142220e-03 1.305028301886792406e+03 2.958687869455709460e+02
3.365262003550894554e-01 1.808122422876843900e-03 6.708476190476189913e+02 1.669804781724586746e+02
3.429039324965278412e-01 1.810371451943152679e-03 4.737169811320754889e+02 1.330519556064789413e+02
3.492243179790229801e-01 1.835371710213073819e-03 4.278055555555555429e+02 1.284352669571481158e+02
3.555659880086458058e-01 1.813249007222180170e-03 4.137407407407407618e+02 1.236538059156333844e+02
3.620245372922214488e-01 1.918012235727336494e-03 4.116666666666666856e+02 1.175963568054008164e+02
3.685406119477664388e-01 1.798147481859587110e-03 4.049639639639639768e+02 1.146827515884156838e+02
3.750909242308860247e-01 1.967614233492519498e-03 4.096290322580645125e+02 1.078210346838285716e+02
3.816999037813160189e-01 1.752662604176019427e-03 4.060695652173913004e+02 1.034924703433509450e+02
3.880273799716012495e-01 1.749306826939258557e-03 4.075344827586206975e+02 9.821494709229573061e+01
3.942361145945514900e-01 1.745527907058957431e-03 4.096379310344827331e+02 9.388017082661914969e+01
4.006128291384035145e-01 1.852638254231622501e-03 4.174146341463414842e+02 8.855301422076377094e+01
4.070503578694664726e-01 1.848743254130127446e-03 4.438145161290322562e+02 8.957455663674888058e+01
4.135933781829447264e-01 1.871256654943844995e-03 5.555038759689922472e+02 1.095002655456050462e+02
4.202179442533061082e-01 1.832712641984981681e-03 8.432846153846153356e+02 1.330083211348984378e+02
4.266798115557093873e-01 1.759393680741872749e-03 1.084456692913385723e+03 7.269524177823713273e+01
4.330910535146235696e-01 1.771858374752960505e-03 9.556461538461538794e+02 9.177494920606137896e+01
4.395078467689783608e-01 1.772659720438770270e-03 6.460000000000000000e+02 9.003198084990451378e+01
4.457793319829173595e-01 1.654526338047628432e-03 4.657839999999999918e+02 6.101389690881906347e+01
4.521562795609589402e-01 1.887763445894669913e-03 4.125774647887324136e+02 5.606505435100437751e+01
4.587656575942579140e-01 1.769717907920350091e-03 3.942043795620438118e+02 5.421776056083741935e+01
4.652405449529313231e-01 1.746242423612376143e-03 3.892374100719424632e+02 5.226305921807827559e+01
4.716282944699034529e-01 1.704407088516023735e-03 3.850802919708029322e+02 4.946688024791926352e+01
4.780637153179891352e-01 1.798647074538550902e-03 3.820833333333333144e+02 4.584810999174137436e+01
4.844976548260259142e-01 1.723433333189145671e-03 3.803450704225352297e+02 4.383214112855439026e+01
4.908596034113225648e-01 1.665744062354685903e-03 3.770780141843971478e+02 4.217720299989941424e+01
4.972011979785150859e-01 1.734256865849588200e-03 3.767876712328767326e+02 3.903345995981656813e+01
5.036178995103413047e-01 1.747915368961153139e-03 3.749256756756756772e+02 3.810752108039333308e+01
5.101756467004687767e-01 1.800451491856020327e-03 3.790645161290322562e+02 3.779250816308734073e+01
5.166235656727934389e-01 1.648057805296297825e-03 4.061428571428571672e+02 4.029062304247270276e+01
5.229884928033705638e-01 1.714260039451578075e-03 5.163421052631579187e+02 6.574424892956811561e+01
5.293925748937229336e-01 1.756900675637705763e-03 7.522756410256409936e+02 8.136643227876683682e+01
5.357749724968067229e-01 1.647361260156582873e-03 9.153642384105960446e+02 3.269063611456679297e+01
5.422269581426349960e-01 1.797131621318817348e-03 7.700060975609756042e+02 7.974819364878365491e+01
5.488258977193463117e-01 1.752106618123457169e-03 5.201304347826087451e+02 5.956563222415279313e+01
5.552607346015674405e-01 1.711536068502800701e-03 3.936187499999999773e+02 2.740202575768806170e+01
5.616696921416424182e-01 1.713298320607429745e-03 3.555705521472392547e+02 2.383860729071787432e+01
5.680596363279470928e-01 1.671719726027721563e-03 3.435124999999999886e+02 2.346639718565677413e+01
5.744116486855085357e-01 1.773350792090137981e-03 3.383511904761904816e+02 2.156891377383710307e+01
5.808465417437830292e-01 1.706594120505047427e-03 3.351939393939393881e+02 1.997862310279570863e+01
5.872915480827241019e-01 1.773275249674210931e-03 3.322254335260115568e+02 1.826118052107224088e+01
5.936297343998458986e-01 1.608871723183330060e-03 3.290925925925926094e+02 1.682676874266590872e+01
6.000917821228005655e-01 1.852508397134843563e-03 3.272692307692307736e+02 1.448399588994636034e+01
6.066068710033430955e-01 1.719733697199352486e-03 3.245730994152046947e+02 1.312076372329763352e+01
6.129319261090041548e-01 1.700305612135823196e-03 3.225000000000000000e+02 1.247357672358132419e+01
6.193292159447265632e-01 1.792945791870086646e-03 3.220166666666666515e+02 1.273773193370055168e+01
6.257789288608107681e-01 1.769335618302108433e-03 3.324011299435028377e+02 1.456039844397131944e+01
6.322945183878984077e-01 1.883051681004075783e-03 3.800634920634920491e+02 2.598567997867242596e+01
6.387697914265673127e-01 1.734308686986089703e-03 4.663920454545454390e+02 2.512834565118224361e+01
6.450797878865883739e-01 1.812617312363664322e-03 5.066195652173913118e+02 1.459600696036917888e+01
6.514777522098027518e-01 1.807195130708317372e-03 4.435729729729729911e+02 3.349988606982142869e+01
6.579453254174412180e-01 1.840076954070700866e-03 3.578624338624338748e+02 2.353274041636793257e+01
6.642487788958216788e-01 1.761967380250493336e-03 3.161428571428571672e+02 1.107428180178885135e+01
6.707545140871414846e-01 1.952870522822350513e-03 3.022749999999999773e+02 8.499455864936299676e+00
6.772291234912055646e-01 1.844192786587162299e-03 2.955661375661375700e+02 8.620754278367195766e+00
6.834443396870620857e-01 1.745041746211572261e-03 2.906304347826086882e+02 8.369035838707180375e+00
6.899300657465672337e-01 1.988575045799213618e-03 2.877053140096618336e+02 8.084914522954058214e+00
6.965346490814943170e-01 1.967867873463197050e-03 2.854924623115578015e+02 7.225454431216242313e+00
7.030970487636396538e-01 2.020648629947002003e-03 2.832038834951456465e+02 7.187719022141688008e+00
7.095716427219228573e-01 1.946516927103622520e-03 2.806262626262626441e+02 6.788645339112290067e+00
7.160970279381224657e-01 2.044543341153194464e-03 2.781333333333333258e+02 6.694133892553133514e+00
7.226116891734091219e-01 2.004959656352403585e-03 2.754390243902439011e+02 6.397380115163869618e+00
7.291288619178314390e-01 2.011427705279334160e-03 2.769714285714285893e+02 6.789627944081148669e+00
7.356079106374427967e-01 1.973711099579897668e-03 2.924807692307692264e+02 1.127036700100214794e+01
7.419803430714648762e-01 1.939746738906150680e-03 3.443804878048780438e+02 2.389251361869720469e+01
7.484516812817442188e-01 2.022257641999446187e-03 4.239045454545454277e+02 2.329913186053389040e+01
7.549512183205485671e-01 1.898119824350936232e-03 4.416346153846153584e+02 1.815052782987201851e+01
7.613853957290165342e-01 1.973382858640895885e-03 3.683818181818181756e+02 3.008263687448815205e+01
7.678481984516135617e-01 1.903941598965435333e-03 2.978418604651162696e+02 1.800135203142912843e+01
7.743372045322526320e-01 1.915374251326664194e-03 2.672027027027027088e+02 8.940010551085400436e+00
7.807807857039134047e-01 1.872160005679921477e-03 2.575825688073394417e+02 8.058443725465350482e+00
7.871827117013717734e-01 1.874571936203420349e-03 2.533303167420814361e+02 7.874070280411542555e+00
7.935705088346153291e-01 1.846468364235832015e-03 2.505201793721973047e+02 7.920620579765062175e+00
7.999497029225959288e-01 1.794315080242126848e-03 2.487990867579908638e+02 8.009115498542492162e+00
8.063895263538338742e-01 1.919941342275102670e-03 2.469237288135593360e+02 8.237870088252313039e+00
8.129038415374738591e-01 1.785391972586650427e-03 2.449688888888888982e+02 8.327665035186727849e+00
8.193543447618309994e-01 1.828478467253065801e-03 2.426978723404255334e+02 8.122007614856688207e+00
8.257450256705209934e-01 1.731942097964038994e-03 2.404776785714285836e+02 8.225169904733562021e+00
8.321389716972604766e-01 1.845140229989535984e-03 2.390833333333333428e+02 8.112083750663437343e+00
8.386208936931099922e-01 1.751195931903918061e-03 2.394700854700854791e+02 8.240446601186823372e+00
8.449970631363269424e-01 1.723661030767332288e-03 2.453836206896551744e+02 9.280179420853576389e+00
8.513046230100612677e-01 1.773741526074865430e-03 2.640630252100840494e+02 1.154314479656063064e+01
8.578256185292513214e-01 1.822821089358022794e-03 2.895668016194331926e+02 1.112283542603099029e+01
8.643009097266359797e-01 1.747841479780405487e-03 2.894315352697095705e+02 1.189311873765525185e+01
8.706520843132705689e-01 1.718512007701664341e-03 2.628445378151260456e+02 1.218279756287024540e+01
8.770655084888429043e-01 1.823306464836067656e-03 2.405573122529644365e+02 9.780390214372593150e+00
8.835379301005906738e-01 1.720994191554163586e-03 2.307777777777777715e+02 9.301262752843795667e+00
8.899818591232092624e-01 1.816014583941305376e-03 2.270196078431372655e+02 9.106326516332934773e+00
8.963154830142930907e-01 1.686559403020368615e-03 2.250791666666666799e+02 8.879417914480656648e+00
9.027402481510985455e-01 1.849914512401526186e-03 2.233740458015267052e+02 8.938875887208393323e+00
9.092741475074460622e-01 1.818523953956779297e-03 2.224823529411764582e+02 9.477766126557018111e+00
9.156513574886713247e-01 1.799905876070713017e-03 2.221111111111111143e+02 1.004849352998857270e+01
9.219738414041327434e-01 1.816254378221876130e-03 2.216015625000000000e+02 1.039699493421581700e+01
9.284093843578240524e-01 1.864548344913183461e-03 2.212423076923076906e+02 1.035615330335562057e+01
9.348720171621091035e-01 1.939851900461452830e-03 2.217191011235954932e+02 1.012166654524629905e+01
9.413551784733346084e-01 1.927152036582965508e-03 2.238358778625954244e+02 1.027146395869581141e+01
9.478756351150825488e-01 2.022964964773094239e-03 2.283007246376811565e+02 1.111180671525610286e+01
9.544794314844599059e-01 1.995588314593873917e-03 2.409151291512915236e+02 1.380357233558511076e+01
9.609640598131067302e-01 1.976081289299603128e-03 2.695735294117646959e+02 1.783297743907507282e+01
9.673540511875814429e-01 1.900963898517757681e-03 3.003030303030303116e+02 1.761284618625089138e+01
9.738764300010358532e-01 2.020370959177093719e-03 3.023229166666666856e+02 1.728873385436414978e+01
9.803887395962943563e-01 1.868024915732807104e-03 2.832771535580524187e+02 1.691781940578261612e+01
9.867609507399704993e-01 1.907798179635916648e-03 2.743942652329749308e+02 1.585383789334329840e+01
9.931792738827067701e-01 1.861169570246367679e-03 2.806109090909091037e+02 1.704645824923685637e+01
9.997024529712079666e-01 1.929714342920701943e-03 2.911027397260273801e+02 1.704727718466416420e+01
1.006152710574202525e+00 1.760100644785859590e-03 2.926250000000000000e+02 1.639072269429192730e+01
1.012546487448541255e+00 1.858180627704414780e-03 2.777162629757785339e+02 1.568862786811030041e+01
1.018988798098918291e+00 1.803978976354649174e-03 2.559260563380281610e+02 1.476975559786117032e+01
1.025394048634321598e+00 1.775790568352827222e-03 2.382631578947368496e+02 1.362731085387111030e+01
1.031778999059903112e+00 1.783042104657854955e-03 2.273425605536332057e+02 1.329963824282891593e+01
1.038243195035333466e+00 1.800042721148124251e-03 2.214300341296928423e+02 1.395889207757576678e+01
1.044593270705168830e+00 1.728638088187854378e-03 2.186048951048950926e+02 1.464366471313183560e+01
1.051019473275584426e+00 1.807666001326826760e-03 2.173678929765886210e+02 1.520769252467062138e+01
1.057452118334604840e+00 1.764796907398143069e-03 2.167423728813559194e+02 1.427397331780840695e+01
1.063812741872586898e+00 1.735604614353873946e-03 2.188664383561643945e+02 1.431502916688574167e+01
1.070275566257694377e+00 1.860876787998901613e-03 2.246935483870967687e+02 1.454765036400804767e+01
1.076675486865225739e+00 1.737707282280460301e-03 2.297250859106529219e+02 1.551783498454062027e+01
1.083000003099001241e+00 1.811785629637566912e-03 2.267138157894736707e+02 1.598218743154243526e+01
1.089457558406981885e+00 1.875700427842611059e-03 2.192402597402597451e+02 1.673276017617865463e+01
1.095857128634095679e+00 1.865882195591197666e-03 2.143881578947368496e+02 1.683927363634557395e+01
1.102286980210992473e+00 1.937596539280167377e-03 2.133003194888179053e+02 1.760836555901403955e+01
1.108924588094037933e+00 2.035521144429528872e-03 2.123201219512195053e+02 1.786139959462532190e+01
1.115518250266801070e+00 1.963453062553008333e-03 2.126835443037974755e+02 1.800501318855069499e+01
1.121980766162010701e+00 1.920251373127695831e-03 2.123312101910827892e+02 1.717165911936998057e+01
1.128426312748922689e+00 1.950613960551148517e-03 2.125434782608695627e+02 1.674344543883907477e+01
1.134959239864979930e+00 1.915365560061970144e-03 2.126861538461538430e+02 1.674061609436567366e+01
1.141388067807542761e+00 1.819889318180962796e-03 2.135015873015873069e+02 1.748107827788724578e+01
1.147829738822878420e+00 1.877407927217479219e-03 2.141975683890577500e+02 1.773756301501282451e+01
1.154234759887723172e+00 1.796226287448233561e-03 2.151065830721003067e+02 1.805820290154293772e+01
1.160592008141087206e+00 1.784421184300352767e-03 2.163962848297213668e+02 1.824036891860375320e+01
1.167026991042843242e+00 1.836276795008287468e-03 2.187731343283581964e+02 1.918935738490537801e+01
1.173494023876834547e+00 1.758155136545365687e-03 2.236574923547400715e+02 1.889932256411654521e+01
1.179808164649816637e+00 1.732605827553653768e-03 2.281323076923077053e+02 2.027802471619295943e+01
1.186220583891021807e+00 1.881017850291822648e-03 2.385562700964630096e+02 1.846133715614751836e+01
1.192681073817049464e+00 1.793318889751105601e-03 2.384862068965517210e+02 1.744735243569801497e+01
1.199065629744253458e+00 1.797529783280079436e-03 2.355492957746478737e+02 1.713182722498255472e+01
1.205502001077074059e+00 1.899328588103967692e-03 2.354931506849314928e+02 1.677209026395056668e+01
1.211991242640565014e+00 1.826306843735066819e-03 2.346086956521739069e+02 1.647135720168597217e+01
1.218362901235649165e+00 1.888953249129523074e-03 2.291582733812949755e+02 1.638895423825927011e+01
1.224837827500277143e+00 1.938626244914326818e-03 2.214280575539568474e+02 1.543278408102329102e+01
1.231306496939841066e+00 1.935692192720165272e-03 2.153768115942029056e+02 1.480136455785841321e+01
1.237900180047003751e+00 1.954996484647400414e-03 2.125268817204301115e+02 1.464442047821332871e+01
1.244387829439413284e+00 1.881879514088832415e-03 2.106343283582089612e+02 1.495924793926629270e+01
1.250735832344970877e+00 1.818331757808236372e-03 2.096085271317829495e+02 1.496443714088749388e+01
1.257083335292831006e+00 1.905720956169173206e-03 2.090553505535055479e+02 1.547945014282397480e+01
1.263603115287416090e+00 1.841854869392088893e-03 2.081363636363636260e+02 1.513790487193804779e+01
1.270020777910819465e+00 1.832011672431217405e-03 2.090646387832699702e+02 1.538022108691505530e+01
1.276488051741652807e+00 1.832185980768075541e-03 2.086653992395437172e+02 1.502915044973461356e+01
1.282839323063532211e+00 1.758750693263018286e-03 2.087440944881889777e+02 1.482325134569204117e+01
1.289363492023574365e+00 1.805471412487298991e-03 2.093434343434343532e+02 1.496373991442792928e+01
1.295761563244195891e+00 1.749310907134910172e-03 2.165335570469798654e+02 2.132118538598832203e+01
1.302096506369333051e+00 1.727886103868702576e-03 2.198637873754152849e+02 2.347199356593640829e+01
1.308490604613926855e+00 1.841981469325142248e-03 2.217258566978193244e+02 2.401437791326432958e+01
1.314923371882378955e+00 1.783204890748409099e-03 2.246463022508038705e+02 2.447649568455965863e+01
1.321263162947042602e+00 1.883891353746835161e-03 2.268179012345678984e+02 2.471473507562347649e+01
1.327809252188654421e+00 1.990407611744629372e-03 2.276952662721893432e+02 2.502917278325290695e+01
1.334395055816720577e+00 2.005908808147741692e-03 2.242873900293255076e+02 2.551936319446265955e+01
1.340924575314278222e+00 1.937181998292608577e-03 2.211373134328358105e+02 2.566179696686737088e+01
1.347326738882997477e+00 1.911240937813023883e-03 2.207041420118343069e+02 2.583900532686277174e+01
1.353867248119903444e+00 1.925349651844857632e-03 2.314305949008498544e+02 2.858177375268683207e+01
1.360292180733798650e+00 1.777880213384871099e-03 2.729071856287425248e+02 3.713372137685330188e+01
1.366716033276369036e+00 1.860440026654835337e-03 3.518823529411764639e+02 4.504535346560902553e+01
1.373134056949086190e+00 1.747663592607761902e-03 4.140204678362572963e+02 3.682108144223865764e+01
1.379508641949547476e+00 1.787974598008121871e-03 4.263352112676056436e+02 3.180749513365123349e+01
1.385849874457594222e+00 1.730044418412237826e-03 4.176397694524495705e+02 3.125453792762242955e+01
1.392210228535155858e+00 1.777760908321846531e-03 3.814027777777777715e+02 3.239127111498473255e+01
1.398630460992727143e+00 1.793834584281517276e-03 3.142222222222222285e+02 3.219085638139969063e+01
1.405027543482165298e+00 1.820682476180417696e-03 2.586308539944903373e+02 2.771277143342699389e+01
1.411380623846245186e+00 1.844474811107960554e-03 2.314083333333333314e+02 2.782307112877794708e+01
1.418011585217980208e+00 2.061904995500850411e-03 2.186832917705735611e+02 2.760161282949982464e+01
1.424633236002852632e+00 1.911062399977238009e-03 2.137240437158469888e+02 2.835695828577807376e+01
1.431027237377290762e+00 1.930893372260762729e-03 2.135567282321899825e+02 2.840161869997901789e+01
1.437551415863808524e+00 1.925262037142165712e-03 2.143688311688311785e+02 2.884044755336553578e+01
1.443999660086549230e+00 1.834928749309971486e-03 2.140159151193633988e+02 2.901211310290977963e+01
1.450408168300875378e+00 1.822080046480867126e-03 2.103062827225130889e+02 2.876695817658652032e+01
1.456762351763572827e+00 1.768742008520618686e-03 2.091473684210526187e+02 2.915940286808474724e+01
1.463211358413713192e+00 1.810126088705470279e-03 2.139311224489795791e+02 3.030739922068315195e+01
1.469593255354290973e+00 1.758193336020684059e-03 2.228854166666666572e+02 3.097007307760658890e+01
1.475950724204827313e+00 1.769305199294179780e-03 2.265555555555555429e+02 3.030986020439728179e+01
1.482355977374464340e+00 1.855140322631434503e-03 2.243574999999999875e+02 3.023781717485572429e+01
1.488803525874331735e+00 1.854999873494519958e-03 2.240890585241730264e+02 3.104654521024113834e+01
1.495319592526707764e+00 2.003828109077177445e-03 2.301172248803827642e+02 3.325475730278788689e+01
1.501939691759246465e+00 1.957822028991581826e-03 2.369367396593673902e+02 3.434302742589354551e+01
1.508463382234335848e+00 1.918938912685786129e-03 2.386088019559902307e+02 3.403859513429087258e+01
1.514901188746566207e+00 1.852902137227367511e-03 2.326133004926108470e+02 3.252944484563339245e+01
1.521228969867623793e+00 1.785136608190808364e-03 2.235062972292191432e+02 3.182614693298404518e+01
1.527563647216529041e+00 1.824993124647320475e-03 2.160504807692307736e+02 3.086213101411257043e+01
1.534022576503679458e+00 1.781774817406586286e-03 2.120242718446602055e+02 3.081552461290318234e+01
1.540418711468126034e+00 1.792491139398408621e-03 2.114425837320574146e+02 3.100017612981688231e+01
1.546838712332167631e+00 1.778278829154705072e-03 2.154096385542168548e+02 3.195063100926130417e+01
1.553238623106807825e+00 1.840983848395847744e-03 2.229787735849056673e+02 3.279826084522382246e+01
1.559673935783696619e+00 1.867161364404805587e-03 2.294869358669833730e+02 3.272699515077570709e+01
1.566161367499480317e+00 1.987417225671155377e-03 2.290816326530612344e+02 3.198363182772525803e+01
1.572795191923813007e+00 1.975399758409353626e-03 2.223573033707865250e+02 3.084584892099930897e+01
1.579229625961506400e+00 1.828964939238766603e-03 2.161370192307692264e+02 3.150150053366952463e+01
1.585615098485775532e+00 1.901195136705323549e-03 2.140067264573991110e+02 3.124605756466359452e+01
1.592069020803266399e+00 1.783565421147388207e-03 2.085610328638497606e+02 3.050727128665813126e+01
1.598398624204083740e+00 1.798472010651884717e-03 2.031369863013698591e+02 3.007285361711288729e+01
1.604843375939136507e+00 1.797152056805669104e-03 2.080701357466063257e+02 3.226575506729150788e+01
1.611212339410225569e+00 1.768878106258207515e-03 2.255275229357798139e+02 3.443182991243121194e+01
1.617590363377642504e+00 1.818287623560442892e-03 2.448719101123595578e+02 3.487700929048178722e+01
1.623974015669422899e+00 1.854816384487833732e-03 2.623137697516930302e+02 3.594112629439784001e+01
1.630543485616582799e+00 2.014479720267581264e-03 2.861066945606694389e+02 3.866960320285221542e+01
1.637155364196844820e+00 1.921442116166700376e-03 3.163656387665198508e+02 3.871258801077945577e+01
1.643640215828007012e+00 1.916406123937146409e-03 3.210879828326180245e+02 3.407434691015256334e+01
1.650095370295723063e+00 1.808845151496338592e-03 2.835835189309576663e+02 3.191493082725208197e+01
1.656466136267144007e+00 1.835556712886826517e-03 2.320430107526881613e+02 2.959399760397872114e+01
1.662921359457136594e+00 1.784847929403802829e-03 2.002178649237472712e+02 2.910526426987155091e+01
1.669278115879615276e+00 1.787810489320909016e-03 1.938896103896103966e+02 3.130146877527857541e+01
1.675603147458916142e+00 1.759339208401217896e-03 2.026688741721854399e+02 3.314024650164578389e+01
1.681944817773278311e+00 1.879012939346250957e-03 2.122004219409282655e+02 3.304383229942939693e+01
1.688494896982127180e+00 1.961244959671172398e-03 2.089732510288065725e+02 3.099885918232747173e+01
1.695047655103924189e+00 1.958531043791479891e-03 1.946687242798354021e+02 3.010469841969879212e+01
1.701563412030947964e+00 1.893890162085724253e-03 1.804112734864300762e+02 2.964664518567774465e+01
1.707975620325744792e+00 1.846204685496802061e-03 1.723903966597077329e+02 2.973039559396902121e+01
1.714377380249353600e+00 1.797036493929945892e-03 1.689581589958158929e+02 2.976898927518943339e+01
1.720768292737840266e+00 1.799184406037973973e-03 1.678969072164948386e+02 3.037228600638571052e+01
1.727152534628709324e+00 1.771490888047008889e-03 1.683549060542797520e+02 3.082356081995990138e+01
1.733526494930327289e+00 1.835615179227028260e-03 1.695926680244399165e+02 3.128393477320133442e+01
1.739975521513371870e+00 1.888347845677861795e-03 1.715752032520325088e+02 3.085435866360755952e+01
1.746497876640803248e+00 1.988580869552720402e-03 1.712732558139534831e+02 3.024953533457091481e+01
1.753090192095328348e+00 1.909790863647236811e-03 1.685577689243027919e+02 2.977994935198199045e+01
1.759542915568929722e+00 1.863330342728648260e-03 1.656593625498007896e+02 2.978978174360806364e+01
1.765978610475646082e+00 1.805054295706254351e-03 1.646999999999999886e+02 3.017653724336177490e+01
1.772332663329672986e+00 1.770928694831684115e-03 1.672399193548387188e+02 3.057828693843018542e+01
1.778664509689639184e+00 1.781133477909586536e-03 1.711217564870259480e+02 3.083135165269425571e+01
1.785069366740120511e+00 1.834600355293997381e-03 1.743808593750000000e+02 3.147168597529279666e+01
1.791506168727699633e+00 1.878728357369653049e-03 1.795745098039215577e+02 3.293202277113476129e+01
1.798039063906349488e+00 1.995486375923071192e-03 1.901629629629629505e+02 3.344331362675427499e+01
1.804647924016717919e+00 1.913848319004299433e-03 2.091819923371647576e+02 3.561471381971721684e+01
1.811089958053599736e+00 1.862622323854617795e-03 2.367030651340996030e+02 3.825498435360393046e+01
1.817521720439822408e+00 1.798364348704032875e-03 2.617490347490347631e+02 3.686742196335644195e+01
1.823812670535420288e+00 1.750448090683544159e-03 2.647235294117647300e+02 3.233770158009495077e+01
1.830221642949216854e+00 1.837728497302317443e-03 2.408398510242085706e+02 2.963606273150203307e+01
1.836582905300079060e+00 1.780128382536366044e-03 2.101764705882353041e+02 2.821049360167751985e+01
1.843061797820461534e+00 1.986079127245108083e-03 1.887477797513321605e+02 2.814681543920120177e+01
1.849632829275571488e+00 1.888944039210000737e-03 1.789605263157894797e+02 2.893313303426493022e+01
1.856090187264436642e+00 1.913060858845453587e-03 1.756236363636363649e+02 3.005240018741920593e+01
1.862531947297203283e+00 1.788974026913770074e-03 1.749792452830188552e+02 2.980584186576790984e+01
1.868931787959941415e+00 1.835149539700427039e-03 1.744590163934426243e+02 3.009586343915039208e+01
1.875342409945594868e+00 1.782793697721218873e-03 1.739925512104283030e+02 3.076189457482258405e+01
1.881685992375486283e+00 1.813583446463527945e-03 1.766143911439114333e+02 3.106085629239226975e+01
1.888176611507502489e+00 1.945205006648250507e-03 1.805661375661375700e+02 3.179652671399479757e+01
1.894684395670122701e+00 1.921537496908314263e-03 1.843595706618962424e+02 3.096946057223598103e+01
1.901176782548104516e+00 1.886986723452953362e-03 1.857064056939501882e+02 3.134767336134194338e+01
1.907561981128558237e+00 1.795440373499332084e-03 1.887864963503649562e+02 3.195368473575828716e+01
1.913985041606118376e+00 1.828239138046576940e-03 1.972228070175438575e+02 3.317254006839246472e+01
1.920403381422240097e+00 1.786024996940504313e-03 2.093405797101449366e+02 3.388095398218771237e+01
1.926716413297410169e+00 1.834639747803229817e-03 2.224341637010676038e+02 3.390058991867074667e+01
1.933271554332125497e+00 1.965820526812752777e-03 2.314090909090909065e+02 3.367149180344347315e+01
1.939792573083097382e+00 1.907526115978609412e-03 2.341308900523560226e+02 3.349244696536769794e+01
1.946288570836251841e+00 1.883695634446648113e-03 2.323458262350937105e+02 3.211651337203868906e+01
1.952655684029843908e+00 1.737190040939992066e-03 2.281084990958408696e+02 3.235795495299767310e+01
1.958969978021109171e+00 1.827434973414125523e-03 2.235682593856655274e+02 3.253177333396521931e+01
1.965496063115082181e+00 1.854230162972571750e-03 2.166064189189189051e+02 3.183254066699552354e+01
1.971963975922738088e+00 1.884120710564727479e-03 2.060051369863013804e+02 3.093549933965641685e+01
1.978442510441045021e+00 1.957066319931451050e-03 1.937759472817133428e+02 3.101950560220026887e+01
1.984931097981023740e+00 1.843590323278294961e-03 1.835521367521367608e+02 3.043895985188448705e+01
1.991287308585444338e+00 1.815152065882439042e-03 1.750647359454855234e+02 3.061495233137165073e+01
1.997701973476069481e+00 1.833321787203764366e-03 1.703172757475083188e+02 3.349182271417253531e+01
2.004164133665459424e+00 1.816322146449814287e-03 1.694774624373956726e+02 5.566974108192995629e+01
2.010465304371688244e+00 1.793999045974344238e-03 1.719046793760831804e+02 8.937634547272988073e+01
2.016906033528098163e+00 1.989616449670199121e-03 1.777386541471048531e+02 9.257788747138621943e+01
2.023555996358446407e+00 1.897180052363281293e-03 1.693398058252427063e+02 4.033311897658658296e+01
2.029968694217374470e+00 1.807083598350285245e-03 1.679732441471572031e+02 3.368826063978292495e+01
2.036339422929389187e+00 1.823287213829230622e-03 1.693338735818476550e+02 3.051652993935019609e+01
2.042808231593590484e+00 1.819045180469573350e-03 1.710860389610389518e+02 2.954090071228194603e+01
2.049121403930300289e+00 1.816823929832920258e-03 1.690050167224080155e+02 2.824599270025753484e+01
2.055546024436551544e+00 1.958593688934813937e-03 1.614984567901234698e+02 2.826564618925712935e+01
2.062179187475123410e+00 1.909374836257744399e-03 1.535093750000000057e+02 2.946474198950014056e+01
2.068587893715514436e+00 1.782255124468116103e-03 1.470785597381342029e+02 2.931423822151734626e+01
2.074943470461427353e+00 1.803325004765888358e-03 1.436450079239302795e+02 2.860668653848930987e+01
2.081348551495329602e+00 1.811685209211536278e-03 1.410944000000000074e+02 2.878990169625453177e+01
2.087807581420585645e+00 1.934124239786214495e-03 1.396094946401225059e+02 2.918911853900404196e+01
2.094354049547901386e+00 1.919763106963207067e-03 1.392024539877300526e+02 2.904313690741258469e+01
2.100814970511138302e+00 1.841726384006937703e-03 1.384669811320754604e+02 2.875199674731128141e+01
2.107147425483176129e+00 1.793021693532189254e-03 1.369731861198738159e+02 2.869131693988144605e+01
2.113573117004156288e+00 1.831442330790634650e-03 1.375099236641221410e+02 2.854184541287206400e+01
2.119956773712852627e+00 1.806996690666118864e-03 1.387563291139240391e+02 2.877815712570341944e+01
2.126392549358501416e+00 1.961143276791299343e-03 1.392102941176470665e+02 2.896981538234575737e+01
2.133022499541108896e+00 1.914261261225060897e-03 1.384393491124260436e+02 2.831487556912710701e+01
2.139480964562213483e+00 1.786119367506160778e-03 1.347720930232558203e+02 2.782810663734220213e+01
2.145796782645738254e+00 1.799418587043424183e-03 1.308685015290519971e+02 2.755948694260829868e+01
2.152165366120878165e+00 1.825425695775702338e-03 1.284515151515151388e+02 2.711333955487928549e+01
2.158655754564665852e+00 1.929951649106770133e-03 1.273735465116279073e+02 2.747436363434014339e+01
2.165204964825616862e+00 1.913631523374921799e-03 1.279283625730994203e+02 2.834606056070047586e+01
2.171687233764930003e+00 1.836559742283269984e-03 1.278977777777777760e+02 2.800406966309492773e+01
2.178057454997971210e+00 1.770075738143539208e-03 1.268504531722054338e+02 2.756045388421529907e+01
2.184381886656512783e+00 1.819268068842387707e-03 1.248410104011887114e+02 2.743824158402594549e+01
2.190889596552291430e+00 1.941484629964972597e-03 1.239830747531734829e+02 2.736035914290012627e+01
2.197415493733709368e+00 1.880394352234131695e-03 1.251277213352685038e+02 2.734544610543272825e+01
2.203858495652105454e+00 1.844129167940211774e-03 1.261476121562952244e+02 2.735538455085317011e+01
2.210218428929338064e+00 1.776952575370011446e-03 1.273653846153846132e+02 2.766745988282578139e+01
2.216548686487991304e+00 1.820372229284925253e-03 1.265210449927431000e+02 2.733378229253980152e+01
2.223054582631938558e+00 1.937499342758612587e-03 1.235953038674033166e+02 2.690550322994632992e+01
2.229555406010463425e+00 1.871681269043944497e-03 1.210701001430615094e+02 2.684365359770767157e+01
2.236023148886606471e+00 1.876509468722661325e-03 1.191696801112656487e+02 2.705664147658392338e+01
2.242466908337517939e+00 1.781536512235300631e-03 1.192402877697841745e+02 2.707798788073765905e+01
2.248784053696174290e+00 1.815619011182786555e-03 1.196111908177905292e+02 2.679941014957323731e+01
2.255261034229438355e+00 1.958337742873136802e-03 1.190912751677852413e+02 2.680941647061677457e+01
2.261752977112598817e+00 1.833135357339661826e-03 1.184441301272984504e+02 2.663167460600028846e+01
2.268193030407839927e+00 1.856919733580766289e-03 1.174515688949522456e+02 2.661270358636140543e+01
2.274620661936892052e+00 1.792548502283534354e-03 1.178095909732016935e+02 2.688388825363228563e+01
2.281045196159239286e+00 1.907452264699439036e-03 1.192864864864864813e+02 2.729237472339787018e+01
2.287566856146262317e+00 1.925687837049752790e-03 1.225106951871657799e+02 2.753217430274048283e+01
2.294017676381079784e+00 1.818149611703329506e-03 1.248559556786703553e+02 2.784225140112529218e+01
2.300373896127871021e+00 1.814054264739159471e-03 1.266443228454172356e+02 2.799047542378647435e+01
2.306733295622487301e+00 1.809288305020508025e-03 1.291799450549450512e+02 2.818762215545415017e+01
2.313210233147671158e+00 1.927057466226796351e-03 1.348333333333333428e+02 2.964686912573288424e+01
2.319750633036068876e+00 1.886628064392380537e-03 1.440211920529801262e+02 3.051591012928854241e+01
2.326167810919689938e+00 1.805281422939875990e-03 1.512760487144790318e+02 3.034343256810000966e+01
2.332524891627314911e+00 1.808157875111407291e-03 1.541760752688172147e+02 2.912694938363057418e+01
2.339018828040365428e+00 1.927078730268403945e-03 1.520576923076923208e+02 2.817342040571221773e+01
2.345529090540556361e+00 1.892646505679497623e-03 1.496727748691099578e+02 2.756078162698301171e+01
2.351902562585342693e+00 1.808634088653226840e-03 1.483676470588235361e+02 2.810808647005100269e+01
2.358283426411155403e+00 1.828495513811564770e-03 1.502385919165580219e+02 2.859936761983525244e+01
2.364665150299146479e+00 1.824483169818866225e-03 1.541827814569536486e+02 2.929925431188162932e+01
2.371140522023317931e+00 1.956229962378429419e-03 1.608598014888337389e+02 3.061762935803267993e+01
2.377698484074287411e+00 1.857249505322706908e-03 1.691064102564102427e+02 3.136716547109402597e+01
2.384135550776628865e+00 1.806484998011118103e-03 1.705896774193548424e+02 2.941358271048947159e+01
2.390495270780528703e+00 1.815820546892564329e-03 1.632451253481894184e+02 2.705524377947215697e+01
2.396907059408651008e+00 1.904650256318906557e-03 1.466990424076607269e+02 2.575674080343723560e+01
2.403395490390968892e+00 1.861409897307351969e-03 1.324394366197183217e+02 2.521952449572588151e+01
2.409868588547004364e+00 1.847911660654164229e-03 1.229332386363636402e+02 2.501337129503715673e+01
2.416315494183244539e+00 1.848423108511250412e-03 1.181797101449275402e+02 2.463454319317660435e+01
2.422721222723576151e+00 1.879130934971403807e-03 1.131104651162790731e+02 2.484313329617131672e+01
2.429135064156228374e+00 1.862177758942303550e-03 1.116656891495601229e+02 2.483923213000521812e+01
2.435558328952115659e+00 1.829358714226044739e-03 1.108772189349112409e+02 2.496997268882506305e+01
2.441961929587736613e+00 1.826990787003958654e-03 1.113712574850299433e+02 2.505590454158465619e+01
2.448435267415004279e+00 1.916283866918213176e-03 1.100465116279069804e+02 2.498454633239055767e+01
2.454898310690642571e+00 1.851262751470384186e-03 1.105454545454545467e+02 2.474604902098030124e+01
2.461278332832209870e+00 1.841207405127180587e-03 1.117734138972809603e+02 2.497708271343655184e+01
2.467732767309350983e+00 1.860175811866779036e-03 1.154609609609609606e+02 2.526166206902089684e+01
2.474317234005322774e+00 1.907302378477835920e-03 1.180543633762517857e+02 2.491467523934325357e+01
2.480763678027650521e+00 1.850982492662076430e-03 1.205354659248956892e+02 2.466350400655912267e+01
2.487114426650852028e+00 1.791691956921820849e-03 1.193426966292134779e+02 2.408918718454860297e+01
2.493514277050582706e+00 1.905910091373927331e-03 1.154755614266842798e+02 2.346199809523124458e+01
2.500016016455529844e+00 1.897218154373805617e-03 1.121499348109517626e+02 2.297660244716482936e+01
2.506504299072060071e+00 1.823698874814003905e-03 1.091897233201581088e+02 2.296224401672349558e+01
2.512828968428921783e+00 1.779539787674511890e-03 1.079932705248990601e+02 2.320900877508278626e+01
2.519262120792594928e+00 1.938201810876334251e-03 1.067808219178082254e+02 2.320760722210835780e+01
2.525775074220281358e+00 1.871497825325404334e-03 1.059859872611464908e+02 2.278458613647308084e+01
2.532197693037325781e+00 1.807973308604888651e-03 1.040564102564102598e+02 2.240151020432735507e+01
2.538545427775757091e+00 1.816891897915347926e-03 1.028005148005148044e+02 2.236893415714625633e+01
2.545039371368973402e+00 1.965732421291352915e-03 1.032149643705463120e+02 2.314888572328210614e+01
2.551577586228050976e+00 1.818913119815899733e-03 1.051224747474747545e+02 2.327580143311592664e+01
2.557912035390546901e+00 1.811160408138717511e-03 1.084160401002506262e+02 2.339548536035613324e+01
2.564418003384666633e+00 1.924750488034227642e-03 1.113541912632821749e+02 2.317397618345739119e+01
2.570930014234638072e+00 1.852202887801034569e-03 1.118121951219512198e+02 2.289581094510578652e+01
2.577333690207623373e+00 1.816621428331073769e-03 1.093655256723716320e+02 2.226296148253095808e+01
2.583698900290759326e+00 1.840143410056186736e-03 1.060268948655256764e+02 2.203707243212577538e+01
2.590116643848396460e+00 1.922552353981257615e-03 1.031773628938156406e+02 2.201087612253283510e+01
2.596553429180498362e+00 1.801710981220896188e-03 1.012439320388349557e+02 2.159010284290636150e+01
2.602955615407046341e+00 1.842317350104424401e-03 1.007729411764705816e+02 2.134043250535403047e+01
2.609495359574187212e+00 1.911716238635802895e-03 1.000250855188141372e+02 2.149682358875489641e+01
2.615974071523933020e+00 1.844748521006626301e-03 9.931882352941175895e+01 2.118661946348821346e+01
2.622378270172453618e+00 1.832507040312451657e-03 9.794970760233918838e+01 2.081314213513736533e+01
2.628819659223405658e+00 1.883705983027747803e-03 9.637356321839079953e+01 2.090949202913282789e+01
2.635224897504864661e+00 1.872415782458078902e-03 9.609080459770115112e+01 2.088363813268076186e+01
2.641639659702591736e+00 1.816527212418568051e-03 9.696309111880046316e+01 2.086248107252918160e+01
2.648064596936881454e+00 1.851525790120274028e-03 9.919498289623717824e+01 2.115649601720306094e+01
2.654540339871488630e+00 1.920962172705038655e-03 1.025511551155115484e+02 2.149483583289756083e+01
2.661017435989672553e+00 1.820997431850269717e-03 1.053154285714285692e+02 2.134297494708356879e+01
2.667377750780578261e+00 1.839233884157700843e-03 1.068433598183881941e+02 2.106509092397572402e+01
2.673833255939705111e+00 1.922629864361171097e-03 1.061950162513542750e+02 2.033199774435068719e+01
2.680310332336410362e+00 1.829470795604572599e-03 1.051075027995520657e+02 2.060139448943546725e+01
2.686679530094181256e+00 1.809753184080302099e-03 1.167567264573990968e+02 5.219329551604106143e+01
2.693172569770623248e+00 1.920456143785719515e-03 1.831363636363636260e+02 2.545001039335187158e+02
2.699710169678059213e+00 1.845827250732203417e-03 3.187121046892038976e+02 7.788379053296941947e+02
2.706108723802718607e+00 1.808001129835774996e-03 4.743864894795127611e+02 1.559239385838354565e+03
2.712552861480932442e+00 1.909490143508341294e-03 4.795879873551106698e+02 1.891965874389275768e+03
2.719028861112676942e+00 1.848278151304674159e-03 3.340021621621621648e+02 1.290899498672665231e+03
2.725349625855669977e+00 1.780111837505188701e-03 1.723196448390677062e+02 4.517216053342852433e+02
2.731792001493120292e+00 1.927874637693306574e-03 1.083125000000000000e+02 1.276751368660730748e+02
2.738310186615081410e+00 1.835670255000661395e-03 9.650053248136315176e+01 2.481323743785202751e+01
2.744685257899765141e+00 1.793617037467074102e-03 9.601185344827585766e+01 1.789573735201555849e+01
2.751066800196758422e+00 1.878288467704576767e-03 9.900628930817610751e+01 1.787837339863401809e+01
2.757601512830000434e+00 1.862141664063760894e-03 1.019303867403314854e+02 1.738356831145709691e+01
2.764058068263966828e+00 1.836587841443396716e-03 1.026252847380410032e+02 1.646188197154413047e+01
2.770529172478649382e+00 1.887167826034379927e-03 1.010349099099099135e+02 1.566135689812447218e+01
2.776955143396238501e+00 1.821333560803167642e-03 9.838207547169811562e+01 1.512559797752284396e+01
2.783316304171964184e+00 1.843620978786204888e-03 9.620165094339623124e+01 1.474783000265769672e+01
2.789755116199374552e+00 1.895104686621155434e-03 9.533294797687861433e+01 1.379727056574302324e+01
2.796202065730379438e+00 1.823396814250311405e-03 9.481556886227545533e+01 1.371604302035068201e+01
2.802598215598055997e+00 1.839199823105454800e-03 9.602395209580838298e+01 1.328163582514713781e+01
2.809058618291326859e+00 1.891542357478581855e-03 9.810643274853801188e+01 1.300649505100623848e+01
2.815539484174618412e+00 1.814857361145085640e-03 1.014114077669902940e+02 1.313544749122040223e+01
2.821989463872399906e+00 1.865090624993398201e-03 1.055448028673835097e+02 1.344536778259515764e+01
2.828483713597702565e+00 1.883630524017047489e-03 1.110702380952380963e+02 1.336252427457709935e+01
2.834900904292738222e+00 1.791954038426357698e-03 1.159312500000000057e+02 1.361998302128163196e+01
2.841279989216558999e+00 1.876324795384782303e-03 1.182246376811594217e+02 1.431623694032845329e+01
2.847767858763501359e+00 1.886990809494324501e-03 1.173647342995169112e+02 1.448075580272558582e+01
2.854224446368732959e+00 1.845718501710050556e-03 1.124975186104218352e+02 1.383830734119131911e+01
2.860652227376856871e+00 1.895283512592607677e-03 1.050436893203883528e+02 1.384078462449240909e+01
2.867113210476443186e+00 1.859648482407798373e-03 9.987128712871286496e+01 1.262602241465968156e+01
2.873572830144707879e+00 1.886954548921765396e-03 9.482063882063881977e+01 1.266030544803851932e+01
2.879995266294152589e+00 1.874768549312584749e-03 9.257868649318463383e+01 1.250780832175839841e+01
2.886377499349285003e+00 1.822646243021190660e-03 9.292911392405063964e+01 1.263594228119773533e+01
2.892826601299819611e+00 1.901257081905588812e-03 9.316160388821384686e+01 1.442459204814731955e+01
2.899287209408602628e+00 1.837036175435869181e-03 9.390314465408805233e+01 1.480767459026207078e+01
2.905651471559458798e+00 1.820821310380915442e-03 9.189834815756034914e+01 1.470358400935483978e+01
2.912064357739847953e+00 1.885695667761764669e-03 8.822850122850123000e+01 1.526223387615090665e+01
2.918524733004972394e+00 1.831846772134888184e-03 8.799620733249051341e+01 1.465985965982199879e+01
2.925008101889499557e+00 1.898964803942654149e-03 8.767965895249695052e+01 1.620440497259263424e+01
2.931494571104498625e+00 1.860470468068603543e-03 8.930160692212608353e+01 1.668177060014614455e+01
2.937893251398651540e+00 1.817351826735809622e-03 9.027979924717691063e+01 1.789621847185543757e+01
2.944305546311252186e+00 1.880927000690213848e-03 8.876774969915764757e+01 2.003639718922723034e+01
2.950769139483569781e+00 1.826098071515048831e-03 8.832432432432432279e+01 1.933745022507494937e+01
2.957217893682505760e+00 1.858471812583063982e-03 8.447820823244552457e+01 1.954446677567074531e+01
2.963641657319503686e+00 1.840162297927921053e-03 8.304539877300614137e+01 1.833633844416220882e+01
2.970043842149071800e+00 1.832295957600710810e-03 8.224133663366336577e+01 1.791848224064343142e+01
2.976510225225458495e+00 1.909562939757382871e-03 7.931947743467932810e+01 1.906690246612227568e+01
2.983008757323797777e+00 1.820848808918005624e-03 7.942379182156133766e+01 1.846079898375934647e+01
2.989442833175567138e+00 1.860876473636659213e-03 7.755393939393938751e+01 1.925394579430764708e+01
2.995851322080832713e+00 1.818248084975540883e-03 7.821614906832297720e+01 1.896163521957491582e+01
3.002288071879581022e+00 1.866109072499165002e-03 7.711327649208283219e+01 1.991191254860146742e+01
3.008748785923475388e+00 1.879638502675874765e-03 7.758787878787879322e+01 2.042047299089120571e+01
3.015199648864150372e+00 1.825469582085792030e-03 7.855223880597014841e+01 2.099269471990621128e+01
3.021614952218953931e+00 1.867358907394168870e-03 7.820242424242424306e+01 2.278067755333008293e+01
3.028035269137849372e+00 1.805619228951016193e-03 8.020525657071338799e+01 2.367094360048599100e+01
3.034481983401863037e+00 1.885823396422961745e-03 7.902045728038507377e+01 2.464690900632781023e+01
3.040948636384726900e+00 1.846244746713175374e-03 7.854320987654321584e+01 2.385893550718569500e+01
3.047399548284976056e+00 1.866575050031695892e-03 7.557649938800489053e+01 2.331512201711049670e+01
3.053818065407082116e+00 1.858882463793821993e-03 7.365110565110565233e+01 2.203661697835710598e+01
3.060168791671987076e+00 1.792825745411367891e-03 7.181552162849872900e+01 2.139469346818645690e+01
3.066596020837712544e+00 1.927764682785730512e-03 6.970260663507109200e+01 2.085921145333689353e+01
3.073140751332767540e+00 1.856356834428901387e-03 6.994684796044499819e+01 2.002744289376739673e+01
3.079593295930210139e+00 1.886716362797553155e-03 6.887878787878787534e+01 2.065517053400423819e+01
3.086017154762366044e+00 1.830431539716442747e-03 6.972875000000000512e+01 2.118271310231529014e+01
3.092486513109037993e+00 1.905108961471654438e-03 6.959112709832133703e+01 2.241549987962054757e+01
3.098964516853627060e+00 1.852397442341169754e-03 7.135228677379480189e+01 2.478899708459634255e+01
3.105440922044128804e+00 1.880034527507769499e-03 8.127636363636364081e+01 6.908300028099301926e+01
3.111821301298671738e+00 1.810318297736169049e-03 1.293660377358490621e+02 3.132964634718538264e+02
3.118233335063332667e+00 1.868901341642052608e-03 2.163861144945188926e+02 7.768828912917012985e+02
3.124683867316949026e+00 1.865189586864977357e-03 2.794078144078143850e+02 1.082766639719802470e+03
3.131144652615997170e+00 1.844489775254080271e-03 2.619740740740740534e+02 9.217035184043993468e+02
3.137527951480249655e+00 1.850518740970626434e-03 1.650615006150061390e+02 4.337862227736475234e+02
3.143946084488824955e+00 1.842734159383119935e-03 9.252292441140025403e+01 1.307021446576908374e+02
3.150358822729363073e+00 1.875642417003805899e-03 6.480946601941747076e+01 3.045607802841091427e+01
3.156784286039504561e+00 1.823981601210612454e-03 6.085374999999999801e+01 1.998977058710279309e+01
3.163270120323041557e+00 1.930117905744787839e-03 5.892688679245283367e+01 1.893317424808639160e+01
3.169756141428992979e+00 1.817110211355118556e-03 5.858165829145728765e+01 1.855956978189765749e+01
3.176136715832639901e+00 1.869400486556539428e-03 5.718666666666666742e+01 1.860473839937265339e+01
3.182603852824878121e+00 1.855271636042648588e-03 5.775460122699386289e+01 1.869846865048473816e+01
3.189050645908320547e+00 1.867823016262818358e-03 5.642303030303030198e+01 1.867968546404924268e+01
3.195475202712392715e+00 1.830177604982121797e-03 5.665880893300248289e+01 1.885841958285907438e+01
3.201930699474990760e+00 1.890160737295187680e-03 5.562604540023895083e+01 1.876496068233047154e+01
3.208380198036255848e+00 1.818817371399450607e-03 5.568493150684931692e+01 1.877091934229232351e+01
3.214769441202507405e+00 1.856295446885927562e-03 5.487135922330097060e+01 1.905864847886359570e+01
3.221219946103295317e+00 1.854520719188760538e-03 5.518337408312958559e+01 1.951482657647873609e+01
3.227683765295594753e+00 1.874065427032763596e-03 5.456438026474127412e+01 1.953166671989158232e+01
3.234131017772435612e+00 1.840716304877563787e-03 5.562885326757090354e+01 2.014163516048558122e+01
3.240599979113187423e+00 1.901252405176113557e-03 5.522301304863582772e+01 2.073253088658290721e+01
3.247028333220890239e+00 1.799593188369970169e-03 5.624779874213836450e+01 2.188317844086855857e+01
3.253443203786942295e+00 1.907653420062672836e-03 5.504009433962264097e+01 2.198186637114679343e+01
3.259883502116921683e+00 1.795580006981134817e-03 5.467506297229218859e+01 2.150592564670706608e+01
3.266300345605878341e+00 1.923600185575663262e-03 5.228135990621336759e+01 1.979356400018262363e+01
3.272853483066015201e+00 1.856140221165968399e-03 5.022804878048780353e+01 1.763998309435993050e+01
3.279208055010873757e+00 1.838273880463746476e-03 4.896196319018405063e+01 1.627617411904527955e+01
3.285677511815711327e+00 1.882917816817657360e-03 4.768138424821002275e+01 1.559089183109569632e+01
3.292103848527159204e+00 1.835553428200827411e-03 4.699877600979192493e+01 1.520902897910224816e+01
3.298586108799094418e+00 1.888317585372828586e-03 4.623159144893111971e+01 1.509613183134959691e+01
3.305031100311709658e+00 1.850386223069815962e-03 4.620828258221681040e+01 1.518050515821976632e+01
3.311493553422723224e+00 1.868513817595845007e-03 4.501789976133651550e+01 1.467474530088998641e+01
3.317903636599865536e+00 1.824831080609758517e-03 4.501963190184049068e+01 1.443286576313851910e+01
3.324331097200103002e+00 1.867240715589447552e-03 4.420357142857142918e+01 1.406847171012201514e+01
3.330698991454875468e+00 1.802295415888940022e-03 4.416334164588528921e+01 1.402552738532324383e+01
3.337129369178693850e+00 1.924555404658041986e-03 4.386062717770035135e+01 1.376520955391891654e+01
3.343680207265053550e+00 1.861922247852822480e-03 4.332931242460796284e+01 1.334312991119054281e+01
3.350044083295126374e+00 1.835162792558274860e-03 4.278371810449574753e+01 1.313192642166378832e+01
3.356505604070456616e+00 1.871227406804753775e-03 4.193127962085308269e+01 1.295690750184666307e+01
3.362916001860436488e+00 1.833654571443432820e-03 4.161875761266747986e+01 1.273085435973721680e+01
3.369285096640512123e+00 1.875337531839301689e-03 4.163536585365853426e+01 1.242821385809553725e+01
3.375802434903234950e+00 1.848095989791553092e-03 4.136941813261163503e+01 1.224576468541764740e+01
3.382214916359785661e+00 1.843501739730700950e-03 4.092275280898876133e+01 1.190845666358877608e+01
3.388621595555129762e+00 1.837214591020290208e-03 4.055895196506550349e+01 1.174225387442713142e+01
3.395087870480640202e+00 1.897809126909797642e-03 4.077761627906976827e+01 1.197342945634988887e+01
3.401600099274715294e+00 1.862825267528726196e-03 4.021568627450980671e+01 1.209292655327715238e+01
3.408008587822927371e+00 1.829521772960810344e-03 4.024534161490683459e+01 1.214377389273435526e+01
3.414429009776510870e+00 1.863403552598411495e-03 4.029256965944272650e+01 1.198011748780913166e+01
3.420895508941175223e+00 1.876279003669552520e-03 4.082472613458529054e+01 1.219451081347593480e+01
3.427361199308996742e+00 1.871984655860910217e-03 3.981012658227847822e+01 1.203785072943942858e+01
3.433789816721534383e+00 1.835455874914732619e-03 3.956331168831168554e+01 1.206671754583307532e+01
3.440207803416203358e+00 1.864980166185075923e-03 3.945954692556634313e+01 1.208525193249811380e+01
3.446682336316245543e+00 1.886495457043324163e-03 3.951382113821138375e+01 1.246426738845226545e+01
3.453142116062292821e+00 1.850491205141300763e-03 3.917647058823529704e+01 1.222489862196617416e+01
3.459552608189105705e+00 1.840426776601197887e-03 3.866609589041095774e+01 1.206180962212886243e+01
3.466037827277117955e+00 1.895781883946169978e-03 3.903904923599321108e+01 1.258837290068106363e+01
3.472473653977210972e+00 1.828931698347952819e-03 3.848479427549195009e+01 1.228420932862057136e+01
3.478868831430015351e+00 1.849798838882201271e-03 3.802142857142857224e+01 1.213022820166586335e+01
3.485296939778874226e+00 1.846836384750711896e-03 3.812454212454212410e+01 1.252818475793836761e+01
3.491740378822062674e+00 1.892374048568714641e-03 3.805646630236794437e+01 1.274846367478316367e+01
3.498222076309955408e+00 1.850392789083453492e-03 3.741729323308270949e+01 1.259869146710281917e+01
3.504611891581455030e+00 1.828338000025509641e-03 3.699417475728155580e+01 1.237614183799746570e+01
3.511032309223517167e+00 1.894740202114146826e-03 3.751526717557251800e+01 1.262104696859703878e+01
3.517510811405253346e+00 1.847376399887671770e-03 3.642490118577075009e+01 1.187551298215858608e+01
3.523886222494890585e+00 1.819823680849573695e-03 3.579345603271983833e+01 1.158236552859167645e+01
3.530333766363422221e+00 1.913949961282706506e-03 3.621386138613861050e+01 1.216642977738684728e+01
3.536838628960300657e+00 1.837400593869444173e-03 3.477708333333333002e+01 1.142347044830656522e+01
3.543212277439104163e+00 1.824314092004992007e-03 3.442398286937901730e+01 1.123512343773299094e+01
3.549634251627681092e+00 1.895848120010211945e-03 3.489915966386554658e+01 1.170075581336749515e+01
3.556117060308725097e+00 1.842284182035823720e-03 3.352183406113537245e+01 1.098249932713016186e+01
3.562580790750173865e+00 1.873137250446494902e-03 3.397807017543859587e+01 1.156993976124307366e+01
3.569027121761189303e+00 1.864198494303047999e-03 3.356756756756756488e+01 1.098940322307883655e+01
3.575415228040989657e+00 1.829283293316363293e-03 3.278654292343387766e+01 1.058444646364255703e+01
3.581824267593239686e+00 1.860007523854312686e-03 3.264965197215776982e+01 1.095410665767296443e+01
3.588330065081806630e+00 1.895947895659538546e-03 3.147331786542923382e+01 9.700732681362881138e+00
3.594804804657118602e+00 1.838793340235311087e-03 3.087073170731707350e+01 9.418070268941498568e+00
3.601203120605045882e+00 1.866742151695356807e-03 3.064215686274509665e+01 9.450126705606567867e+00
3.607629953215138574e+00 1.849946976811765471e-03 2.996491228070175339e+01 8.284943266120377459e+00
3.614090854913730499e+00 1.868416365547433599e-03 2.934343434343434254e+01 7.872506237128502171e+00
3.620574720227974552e+00 1.873754476683962313e-03 2.900257069408740307e+01 7.734342338808242623e+00
3.627004027770476924e+00 1.835919208150294619e-03 2.832620320855615148e+01 7.512650545132168567e+00
3.633382280898821648e+00 1.849285921997263250e-03 2.816531165311653240e+01 7.311327162714853500e+00
3.639818201334091174e+00 1.872714577785467623e-03 2.743596730245231541e+01 6.330945837818378941e+00
3.646271849872324999e+00 1.848931603973280732e-03 2.685674157303370890e+01 5.835899784710553817e+00
3.652754025121335069e+00 1.886957975833729447e-03 2.618539325842696641e+01 5.792272418509944565e+00
3.659208746855755479e+00 1.834720162372708565e-03 2.570796460176991260e+01 5.308699505811190100e+00
3.665582835495777569e+00 1.840575612045432024e-03 2.537537537537537702e+01 4.802856211479634929e+00
3.672040343112283445e+00 1.886479483533069204e-03 2.496706586826347163e+01 4.620834356580592051e+00
3.678529717319615866e+00 1.858096912976999176e-03 2.452795031055900665e+01 3.650396216695950269e+00
3.684932562337432049e+00 1.835190244932949138e-03 2.430546623794212380e+01 3.637198921201655555e+00
3.691340469028411508e+00 1.865394116403416890e-03 2.424595469255663360e+01 3.144602093081589889e+00
3.697825917576230470e+00 1.878575472322643403e-03 2.376644736842105132e+01 2.601988239363109745e+00
3.704288468942850354e+00 1.854378416201764085e-03 2.344368600682593851e+01 2.718765846994387392e+00
3.710695071708606907e+00 1.843173339766954189e-03 2.288771929824561369e+01 2.016854191810835140e+00
3.717119980493126530e+00 1.858275420549158159e-03 2.269999999999999929e+01 1.941556812751782601e+00
3.723579054116692877e+00 1.875547371405369762e-03 2.219636363636363541e+01 1.610863943549578403e+00
3.730020297411832164e+00 1.843995263516665269e-03 2.195454545454545325e+01 1.789499137338276258e+00
3.736426917509388268e+00 1.851423495632689448e-03 2.196124031007752109e+01 1.639594442446357547e+00
3.742862848593606184e+00 1.866246695943705233e-03 2.163241106719367579e+01 1.613243903003476420e+00
3.749304155234212121e+00 1.850203366498975400e-03 2.153688524590164022e+01 1.549993281361411457e+00
3.755769545342233950e+00 1.881542671327423493e-03 2.129045643153526868e+01 1.467431360442537303e+00
3.762207580716425692e+00 1.832713059301602828e-03 2.112719298245614041e+01 1.641616923938568284e+00
3.768650259547695391e+00 1.882711660849632198e-03 2.111453744493391937e+01 1.604147383394196824e+00
3.775101190588130873e+00 1.841328330998877110e-03 2.074883720930232656e+01 1.438969344521517701e+00
3.781544745172108257e+00 1.876261972947606757e-03 2.062264150943396146e+01 1.398169224554481227e+00
3.787984350729691752e+00 1.841817734800533721e-03 2.089552238805970319e+01 1.272951466281813104e+00
3.794443778523244770e+00 1.888119406057294294e-03 2.044723618090452177e+01 1.631417696022846586e+00
3.800887998049732097e+00 1.829598834944004332e-03 2.023118279569892408e+01 1.664445276478191849e+00
3.807319286871066577e+00 1.879776389761753357e-03 2.001630434782608603e+01 1.548083301784100030e+00
3.813728772969168901e+00 1.816176537965013323e-03 2.009356725146198741e+01 1.626887551921428088e+00
3.820127884734960233e+00 1.870328496078344947e-03 2.030177514792899274e+01 1.602348946260809592e+00
3.826558902351690605e+00 1.840091099185570860e-03 1.994968553459119320e+01 1.354115947329968650e+00
3.832976717434447789e+00 1.862754303780558536e-03 1.974675324675324717e+01 1.447950028443996784e+00
3.839467489846226655e+00 1.881591717002498556e-03 1.991891891891891930e+01 1.674421937254494175e+00
3.845958738964208923e+00 1.872212223355807642e-03 1.993571428571428683e+01 1.678343449563846956e+00
3.852379013358490312e+00 1.829949564810406546e-03 1.993846153846153868e+01 1.730820512060802230e+00
3.858770514458473411e+00 1.860590576749386821e-03 1.942399999999999949e+01 1.609849682423796668e+00
3.865201312403456324e+00 1.846877382617491750e-03 1.941025641025640880e+01 1.763150707226334601e+00
3.871669834970288271e+00 1.885989225799452511e-03 1.924107142857142705e+01 1.456917437045539554e+00
3.878154213609482870e+00 1.855219997046820071e-03 1.935922330097087496e+01 1.491295003683099862e+00
3.884570297975108666e+00 1.842018581107749764e-03 1.897894736842105345e+01 1.165002110254527823e+00
3.891030549524630455e+00 1.892572859664069882e-03 1.900000000000000000e+01 1.206464071390257242e+00
3.897480132485925619e+00 1.830223622249431631e-03 1.848750000000000071e+01 1.027588195728230236e+00
3.903837790606199842e+00 1.833538786489578550e-03 1.830136986301369717e+01 1.383222527272803370e+00
3.910297958451704581e+00 1.898394991490752427e-03 1.813235294117647101e+01 1.731801070590063052e+00
3.916760076293909876e+00 1.823271174774054393e-03 1.865517241379310320e+01 1.350342362013880138e+00
3.923205856217289345e+00 1.907998375040481686e-03 1.845283018867924696e+01 1.587598790034915108e+00
3.929647757040283906e+00 1.804292177573046203e-03 1.876744186046511587e+01 1.955563681689307165e+00
3.936002968608691699e+00 1.864030959871269735e-03 1.840540540540540704e+01 1.588168453216645126e+00
3.942404476100300759e+00 1.828532384993888883e-03 1.813793103448275801e+01 2.047590736455658256e+00
3.948822507765122225e+00 1.871711324841116540e-03 1.850000000000000000e+01 2.174229226018435934e+00
3.955157590966607906e+00 1.825831164639231917e-03 2.014285714285714235e+01 2.358224859888454095e+00
3.961507824082775464e+00 1.968979546566614058e-03 2.214285714285714235e+01 2.104417123236605125e+00
