# angle I
-5.345013494957747469e+00 3.130000000000000000e+02
-5.045018388767892326e+00 3.089375000000000000e+02
-4.689203949978235642e+00 2.878125000000000000e+02
-4.333026410032358555e+00 2.770625000000000000e+02
-3.976512850060811122e+00 2.746875000000000000e+02
-3.619690506843096234e+00 2.716250000000000000e+02
-3.262586760556078769e+00 2.703750000000000000e+02
-2.904206446615597237e+00 2.780000000000000000e+02
-2.536625107857171102e+00 2.752222222222222285e+02
-2.169762540650015836e+00 2.709411764705882320e+02
-1.820546743112691601e+00 2.731875000000000000e+02
-1.464675008922181831e+00 2.776875000000000000e+02
-1.108690583851543510e+00 2.728125000000000000e+02
-7.526209769764011792e-01 2.801875000000000000e+02
-1.762194385507231675e-01 2.793055555555555429e+02
3.964937367391271339e-01 2.765000000000000000e+02
7.526209769764011792e-01 2.738125000000000000e+02
1.108690583851543510e+00 2.753125000000000000e+02
1.464675008922181831e+00 2.773750000000000000e+02
1.820546743112691601e+00 2.742500000000000000e+02
2.169762540650015836e+00 2.698235294117646959e+02
2.536625107857171102e+00 2.802222222222222285e+02
2.904206446615597237e+00 2.716470588235293917e+02
3.262586760556078769e+00 2.743125000000000000e+02
3.619690506843096234e+00 2.745000000000000000e+02
3.976512850060811122e+00 2.752500000000000000e+02
4.333026410032358555e+00 2.801875000000000000e+02
4.689203949978235642e+00 2.760000000000000000e+02
5.045018388767892326e+00 2.740625000000000000e+02
5.400442812991911090e+00 2.760000000000000000e+02
5.755450488841650447e+00 2.783125000000000000e+02
6.121346079378987781e+00 2.714705882352941444e+02
6.496668123211583712e+00 2.707058823529411598e+02
6.859015260005412173e+00 2.770625000000000000e+02
7.225286504036425583e+00 2.763529411764706083e+02
7.590197231644101095e+00 2.635625000000000000e+02
7.944261363996122149e+00 2.776250000000000000e+02
8.317826571389893786e+00 2.720555555555555429e+02
8.694031650506699904e+00 2.718125000000000000e+02
9.055537378374085122e+00 2.798235294117646959e+02
9.421497369287795465e+00 2.754666666666666401e+02
9.763407514716192281e+00 2.774375000000000000e+02
1.012575574675722834e+01 2.808823529411764639e+02
1.048819627135121557e+01 2.798125000000000000e+02
1.082670619925649369e+01 2.766666666666666856e+02
1.117815282102464103e+01 2.798235294117646959e+02
1.155253435339616530e+01 2.792352941176470722e+02
1.191343590158883536e+01 2.772500000000000000e+02
1.226267284651528833e+01 2.789375000000000000e+02
1.262280932778145370e+01 2.783529411764706083e+02
1.297953919419553870e+01 2.778125000000000000e+02
1.335482213221673931e+01 2.782941176470588402e+02
1.372408791116629168e+01 2.727058823529411598e+02
1.409901987699426762e+01 2.804444444444444571e+02
1.446083602812778324e+01 2.778666666666666742e+02
1.481730709028705206e+01 2.821875000000000000e+02
1.517173449838404942e+01 2.740588235294117680e+02
1.551811551146366774e+01 2.796666666666666856e+02
1.589641250683601470e+01 2.837777777777777715e+02
1.627339110809699463e+01 2.798666666666666742e+02
1.662011968575146881e+01 2.772352941176470722e+02
1.697835480865197155e+01 2.710625000000000000e+02
1.734199584128202787e+01 2.815000000000000000e+02
1.770553895594225224e+01 2.800588235294117680e+02
1.807130326400313081e+01 2.781176470588235361e+02
1.843465442894936857e+01 2.718000000000000114e+02
1.878096222119318170e+01 2.736250000000000000e+02
1.913659987323090306e+01 2.840000000000000000e+02
1.950514123753502460e+01 2.737500000000000000e+02
1.986330730459379268e+01 2.793750000000000000e+02
2.022073492801051842e+01 2.767647058823529278e+02
2.058710680632741230e+01 2.749375000000000000e+02
2.094314887247101353e+01 2.766875000000000000e+02
2.130438054981574680e+01 2.794117647058823763e+02
2.167905111950058483e+01 2.802941176470588402e+02
2.204560599318464398e+01 2.751875000000000000e+02
2.239682653882750429e+01 2.787500000000000000e+02
2.275363822822428617e+01 2.757500000000000000e+02
2.312793991557033380e+01 2.733333333333333144e+02
2.349935112218316746e+01 2.710625000000000000e+02
2.385416066626844156e+01 2.661250000000000000e+02
2.420834365316106940e+01 2.605000000000000000e+02
2.455857028755591998e+01 2.723750000000000000e+02
2.493091152744412042e+01 2.785882352941176237e+02
2.527483223733344175e+01 2.675333333333333599e+02
2.563425652252228559e+01 2.755625000000000000e+02
2.601672385617668581e+01 2.748000000000000114e+02
2.640577305237117756e+01 2.789285714285714448e+02
2.671930330674172893e+01 2.766666666666666856e+02
2.707089648078908084e+01 2.735625000000000000e+02
2.745202761316002693e+01 2.752105263157894797e+02
2.782921475418621426e+01 2.816000000000000227e+02
2.818807885309087169e+01 2.762941176470588402e+02
2.854806482795782330e+01 2.646250000000000000e+02
2.889549902919376478e+01 2.668000000000000114e+02
2.924727850905018656e+01 2.765294117647058556e+02
2.961173747369430131e+01 2.719375000000000000e+02
2.997762869486751214e+01 2.728823529411764639e+02
3.034381575091571293e+01 2.723750000000000000e+02
3.069637995846956002e+01 2.763125000000000000e+02
3.104821642274215066e+01 2.671875000000000000e+02
3.141729887792190112e+01 2.712941176470588402e+02
3.177492433466741772e+01 2.691250000000000000e+02
3.214626355577831163e+01 2.630000000000000000e+02
3.251675605723034579e+01 2.705000000000000000e+02
3.287487621126714288e+01 2.718235294117646959e+02
3.322782418636403889e+01 2.616000000000000227e+02
3.358790561082158632e+01 2.757058823529411598e+02
3.397104670879200228e+01 2.735294117647058556e+02
3.430972963393656272e+01 2.694666666666666401e+02
3.467331300415371231e+01 2.717647058823529278e+02
3.504488555086337698e+01 2.753125000000000000e+02
3.541363622899447705e+01 2.685555555555555429e+02
3.577692547683867730e+01 2.772666666666666515e+02
3.613001053112260763e+01 2.648750000000000000e+02
3.648202563062135084e+01 2.733750000000000000e+02
3.682962937910751577e+01 2.703125000000000000e+02
3.718790880640079166e+01 2.680588235294117680e+02
3.755793617592696165e+01 2.794705882352941444e+02
3.793580923229645663e+01 2.728750000000000000e+02
3.829782656806155927e+01 2.680625000000000000e+02
3.865315950278650803e+01 2.651875000000000000e+02
3.901830970180436253e+01 2.766470588235293917e+02
3.937154677477515463e+01 2.627500000000000000e+02
3.973451736319234584e+01 2.677058823529411598e+02
4.009041448886217296e+01 2.669333333333333371e+02
4.045700437370926039e+01 2.729411764705882320e+02
4.081547633796911612e+01 2.578000000000000114e+02
4.116711665622139549e+01 2.708823529411764639e+02
4.153243602663183509e+01 2.685294117647058556e+02
4.190135268967101467e+01 2.731875000000000000e+02
4.225694403171050340e+01 2.655882352941176237e+02
4.263072221917273197e+01 2.646470588235293917e+02
4.298236812304300258e+01 2.711999999999999886e+02
4.335397244744854106e+01 2.631578947368420813e+02
4.370938581296284298e+01 2.722857142857142776e+02
4.408141282004845607e+01 2.603888888888889142e+02
4.442311195098108811e+01 2.676250000000000000e+02
4.474736345545046134e+01 2.706666666666666856e+02
4.513181037106932081e+01 2.668695652173913118e+02
4.550518791356464732e+01 2.655454545454545610e+02
4.587859612931388398e+01 2.611739130434782510e+02
4.626298575904075960e+01 2.584166666666666856e+02
4.659827357861271935e+01 2.706111111111110858e+02
4.695833007920350610e+01 2.586875000000000000e+02
4.732706300537589073e+01 2.612941176470588402e+02
4.768729047865042503e+01 2.541875000000000000e+02
4.804603123853006252e+01 2.642352941176470722e+02
4.839911688274412427e+01 2.475333333333333314e+02
4.876043263521199123e+01 2.652777777777777715e+02
4.912600027158417504e+01 2.587500000000000000e+02
4.948820129318639260e+01 2.656875000000000000e+02
4.985200348507563461e+01 2.531875000000000000e+02
5.021186646673336895e+01 2.533125000000000000e+02
5.056009585579234056e+01 2.572500000000000000e+02
5.092929928871412670e+01 2.557777777777777715e+02
5.129035769465544803e+01 2.488000000000000114e+02
5.164685043638609585e+01 2.603529411764706083e+02
5.201769573310133410e+01 2.575000000000000000e+02
5.238760095852538257e+01 2.574375000000000000e+02
5.273628981835555862e+01 2.527500000000000000e+02
5.309476049356305793e+01 2.530000000000000000e+02
5.345016124763998988e+01 2.566250000000000000e+02
5.381627393954912719e+01 2.567058823529411598e+02
5.418861012304124358e+01 2.530625000000000000e+02
5.455507675480509988e+01 2.525294117647058840e+02
5.490978944155331476e+01 2.570625000000000000e+02
5.527062247726589561e+01 2.500000000000000000e+02
5.563114682740363293e+01 2.612500000000000000e+02
5.601023261561899602e+01 2.558421052631578902e+02
5.636736094360470872e+01 2.548461538461538396e+02
5.670276624052125669e+01 2.544117647058823479e+02
5.708342660208528230e+01 2.536470588235294201e+02
5.743755150235368490e+01 2.632500000000000000e+02
5.781125925987439729e+01 2.567647058823529278e+02
5.818065824853643875e+01 2.573750000000000000e+02
5.852827955308822538e+01 2.571250000000000000e+02
5.888312669818119360e+01 2.660000000000000000e+02
5.924840814141190748e+01 2.524705882352941160e+02
5.961154974951115548e+01 2.497500000000000000e+02
5.996845703544695283e+01 2.556875000000000000e+02
6.032107613684184599e+01 2.508125000000000000e+02
6.067635033341284867e+01 2.569375000000000000e+02
6.103835741567128537e+01 2.528823529411764639e+02
6.140561065545576724e+01 2.540625000000000000e+02
6.177042045335986842e+01 2.540000000000000000e+02
6.213399215608534831e+01 2.636250000000000000e+02
6.248259002593690781e+01 2.545333333333333314e+02
6.284760485184366985e+01 2.551111111111111143e+02
6.324143716501277623e+01 2.522777777777777715e+02
6.359422694762883310e+01 2.481428571428571388e+02
6.391455316895247307e+01 2.466428571428571388e+02
6.427479584875267449e+01 2.504210526315789593e+02
6.466508569255833550e+01 2.474375000000000000e+02
6.502666580012007103e+01 2.538235294117646959e+02
6.539446369731982145e+01 2.497500000000000000e+02
6.574820320749168445e+01 2.565625000000000000e+02
6.610068040043485382e+01 2.497500000000000000e+02
6.645692095565500779e+01 2.475000000000000000e+02
6.681800687385491244e+01 2.534117647058823479e+02
6.719035107877287771e+01 2.465294117647058840e+02
6.755840506439764681e+01 2.518125000000000000e+02
6.790011856147869196e+01 2.484666666666666686e+02
6.826495417233978458e+01 2.501666666666666572e+02
6.864122356074808806e+01 2.501250000000000000e+02
6.899120487936832546e+01 2.486875000000000000e+02
6.934515837690105400e+01 2.584375000000000000e+02
6.970219057915214478e+01 2.419375000000000000e+02
7.006043201921525565e+01 2.481764705882353041e+02
7.042671108571890670e+01 2.605000000000000000e+02
7.078710034359642123e+01 2.462500000000000000e+02
7.115811437123892347e+01 2.463888888888888857e+02
7.153958093271063490e+01 2.537058823529411882e+02
7.190442186609608655e+01 2.430000000000000000e+02
7.224263994054126670e+01 2.369375000000000000e+02
7.260219134987632117e+01 2.555294117647058840e+02
7.297609154208090843e+01 2.435625000000000000e+02
7.332683994636451530e+01 2.455000000000000000e+02
7.367044320861349149e+01 2.537500000000000000e+02
7.404725045633394132e+01 2.463529411764705799e+02
7.441295239220515612e+01 2.504000000000000057e+02
7.476343416238385942e+01 2.488235294117646959e+02
7.513029354853142650e+01 2.476470588235294201e+02
7.551519662243860864e+01 2.564705882352941444e+02
7.587747040259006326e+01 2.475000000000000000e+02
7.622370848935524634e+01 2.461250000000000000e+02
7.658149045660854881e+01 2.485882352941176521e+02
7.695187606182420836e+01 2.469375000000000000e+02
7.730262882985928741e+01 2.459375000000000000e+02
7.767087407088446582e+01 2.608333333333333144e+02
7.804258364307008833e+01 2.391250000000000000e+02
7.840203383197295750e+01 2.546470588235294201e+02
7.876824823481187821e+01 2.464375000000000000e+02
7.911783678159913791e+01 2.513750000000000000e+02
7.947884115428381335e+01 2.564117647058823763e+02
7.982941921865229062e+01 2.489333333333333371e+02
8.016986655134641637e+01 2.520000000000000000e+02
8.052259744243993111e+01 2.514375000000000000e+02
8.090008256545793586e+01 2.471764705882353041e+02
8.126221084920342719e+01 2.482500000000000000e+02
8.162685701871724575e+01 2.471764705882353041e+02
8.200083637261658964e+01 2.467058823529411882e+02
8.236607722354534644e+01 2.473750000000000000e+02
8.273099511512749871e+01 2.448823529411764639e+02
8.309724864130512856e+01 2.416250000000000000e+02
8.345987425604631937e+01 2.498235294117646959e+02
8.382511681739602238e+01 2.437500000000000000e+02
8.418906478693283191e+01 2.485294117647058840e+02
8.455583955869450108e+01 2.466250000000000000e+02
8.491951971574090408e+01 2.469411764705882320e+02
8.527853749732436484e+01 2.488000000000000114e+02
8.562162058484382499e+01 2.463125000000000000e+02
8.597809203121383348e+01 2.534375000000000000e+02
8.633487585451712221e+01 2.438125000000000000e+02
8.669194469307866768e+01 2.418750000000000000e+02
8.704136346034113103e+01 2.540625000000000000e+02
8.738782040139935248e+01 2.539411764705882320e+02
8.773094542231270054e+01 2.524375000000000000e+02
8.806515251314741022e+01 2.526875000000000000e+02
8.840279388044622522e+01 2.530666666666666629e+02
8.875361409099390642e+01 2.491875000000000000e+02
8.910965539559541071e+01 2.430000000000000000e+02
8.946576564888061966e+01 2.478750000000000000e+02
8.982191728423745758e+01 2.498125000000000000e+02
9.017808271576254242e+01 2.455000000000000000e+02
9.055281017641182473e+01 2.551176470588235361e+02
9.094370714968017921e+01 2.523888888888888857e+02
9.133846013757234061e+01 2.473333333333333428e+02
9.172253577705761529e+01 2.588235294117646959e+02
9.209749924035037338e+01 2.556666666666666572e+02
9.246359859170013351e+01 2.657058823529411598e+02
9.273589281410198737e+01 2.753000000000000114e+02
