# angle I
-5.345013494957747469e+00 3.411666666666666856e+02
-5.045018388767892326e+00 3.019375000000000000e+02
-4.689203949978235642e+00 2.825625000000000000e+02
-4.333026410032358555e+00 2.846250000000000000e+02
-3.976512850060811122e+00 2.790625000000000000e+02
-3.619690506843096234e+00 2.809375000000000000e+02
-3.262586760556078769e+00 2.803125000000000000e+02
-2.904206446615597237e+00 2.768823529411764639e+02
-2.536625107857171102e+00 2.850555555555555429e+02
-2.169762540650015836e+00 2.826470588235293917e+02
-1.820546743112691601e+00 2.680000000000000000e+02
-1.464675008922181831e+00 2.715625000000000000e+02
-1.108690583851543510e+00 2.754375000000000000e+02
-7.526209769764011792e-01 2.716875000000000000e+02
-1.762194385507231675e-01 2.645277777777777715e+02
3.964937367391271339e-01 2.698125000000000000e+02
7.526209769764011792e-01 2.796250000000000000e+02
1.108690583851543510e+00 2.788125000000000000e+02
1.464675008922181831e+00 2.700625000000000000e+02
1.820546743112691601e+00 2.761250000000000000e+02
2.169762540650015836e+00 2.700588235294117680e+02
2.536625107857171102e+00 2.817222222222222285e+02
2.904206446615597237e+00 2.755294117647058556e+02
3.262586760556078769e+00 2.816875000000000000e+02
3.619690506843096234e+00 2.821250000000000000e+02
3.976512850060811122e+00 2.726250000000000000e+02
4.333026410032358555e+00 2.719375000000000000e+02
4.689203949978235642e+00 2.712500000000000000e+02
5.045018388767892326e+00 2.687500000000000000e+02
5.400442812991911090e+00 2.751875000000000000e+02
5.755450488841650447e+00 2.689375000000000000e+02
6.121346079378987781e+00 2.702941176470588402e+02
6.496668123211583712e+00 2.668823529411764639e+02
6.859015260005412173e+00 2.721875000000000000e+02
7.225286504036425583e+00 2.685882352941176237e+02
7.590197231644101095e+00 2.705625000000000000e+02
7.944261363996122149e+00 2.855000000000000000e+02
8.317826571389893786e+00 2.660555555555555429e+02
8.694031650506699904e+00 2.688750000000000000e+02
9.055537378374085122e+00 2.727647058823529278e+02
9.421497369287795465e+00 2.768666666666666742e+02
9.763407514716192281e+00 2.716250000000000000e+02
1.012575574675722834e+01 2.690000000000000000e+02
1.048819627135121557e+01 2.735625000000000000e+02
1.082670619925649369e+01 2.756000000000000227e+02
1.117815282102464103e+01 2.724705882352941444e+02
1.155253435339616530e+01 2.765294117647058556e+02
1.191343590158883536e+01 2.822500000000000000e+02
1.226267284651528833e+01 2.761250000000000000e+02
1.262280932778145370e+01 2.639411764705882320e+02
1.297953919419553870e+01 2.753125000000000000e+02
1.335482213221673931e+01 2.749411764705882320e+02
1.372408791116629168e+01 2.750588235294117680e+02
1.409901987699426762e+01 2.692777777777777715e+02
1.446083602812778324e+01 2.748666666666666742e+02
1.481730709028705206e+01 2.634375000000000000e+02
1.517173449838404942e+01 2.600000000000000000e+02
1.551811551146366774e+01 2.686000000000000227e+02
1.589641250683601470e+01 2.700000000000000000e+02
1.627339110809699463e+01 2.671999999999999886e+02
1.662011968575146881e+01 2.642941176470588402e+02
1.697835480865197155e+01 2.675625000000000000e+02
1.734199584128202787e+01 2.733125000000000000e+02
1.770553895594225224e+01 2.698235294117646959e+02
1.807130326400313081e+01 2.702352941176470722e+02
1.843465442894936857e+01 2.656666666666666856e+02
1.878096222119318170e+01 2.746875000000000000e+02
1.913659987323090306e+01 2.607647058823529278e+02
1.950514123753502460e+01 2.603125000000000000e+02
1.986330730459379268e+01 2.731250000000000000e+02
2.022073492801051842e+01 2.681176470588235361e+02
2.058710680632741230e+01 2.553750000000000000e+02
2.094314887247101353e+01 2.567500000000000000e+02
2.130438054981574680e+01 2.712352941176470722e+02
2.167905111950058483e+01 2.670000000000000000e+02
2.204560599318464398e+01 2.642500000000000000e+02
2.239682653882750429e+01 2.600625000000000000e+02
2.275363822822428617e+01 2.651875000000000000e+02
2.312793991557033380e+01 2.711111111111110858e+02
2.349935112218316746e+01 2.518750000000000000e+02
2.385416066626844156e+01 2.562500000000000000e+02
2.420834365316106940e+01 2.633750000000000000e+02
2.455857028755591998e+01 2.618750000000000000e+02
2.493091152744412042e+01 2.529411764705882320e+02
2.527483223733344175e+01 2.642666666666666515e+02
2.563425652252228559e+01 2.613125000000000000e+02
2.601672385617668581e+01 2.591499999999999773e+02
2.640577305237117756e+01 2.596428571428571672e+02
2.671930330674172893e+01 2.618000000000000114e+02
2.707089648078908084e+01 2.547500000000000000e+02
2.745202761316002693e+01 2.630000000000000000e+02
2.782921475418621426e+01 2.587333333333333485e+02
2.818807885309087169e+01 2.553529411764705799e+02
2.854806482795782330e+01 2.541875000000000000e+02
2.889549902919376478e+01 2.521333333333333258e+02
2.924727850905018656e+01 2.555882352941176521e+02
2.961173747369430131e+01 2.483125000000000000e+02
2.997762869486751214e+01 2.533529411764705799e+02
3.034381575091571293e+01 2.676875000000000000e+02
3.069637995846956002e+01 2.623750000000000000e+02
3.104821642274215066e+01 2.460000000000000000e+02
3.141729887792190112e+01 2.511764705882353041e+02
3.177492433466741772e+01 2.545000000000000000e+02
3.214626355577831163e+01 2.616470588235293917e+02
3.251675605723034579e+01 2.578125000000000000e+02
3.287487621126714288e+01 2.647058823529411598e+02
3.322782418636403889e+01 2.573333333333333144e+02
3.358790561082158632e+01 2.582352941176470722e+02
3.397104670879200228e+01 2.566470588235293917e+02
3.430972963393656272e+01 2.625333333333333599e+02
3.467331300415371231e+01 2.487647058823529278e+02
3.504488555086337698e+01 2.570000000000000000e+02
3.541363622899447705e+01 2.677777777777777715e+02
3.577692547683867730e+01 2.481333333333333258e+02
3.613001053112260763e+01 2.568125000000000000e+02
3.648202563062135084e+01 2.520625000000000000e+02
3.682962937910751577e+01 2.623750000000000000e+02
3.718790880640079166e+01 2.573529411764706083e+02
3.755793617592696165e+01 2.535294117647058840e+02
3.793580923229645663e+01 2.592500000000000000e+02
3.829782656806155927e+01 2.518125000000000000e+02
3.865315950278650803e+01 2.541875000000000000e+02
3.901830970180436253e+01 2.543529411764705799e+02
3.937154677477515463e+01 2.506250000000000000e+02
3.973451736319234584e+01 2.548235294117646959e+02
4.009041448886217296e+01 2.549333333333333371e+02
4.045700437370926039e+01 2.557058823529411882e+02
4.081547633796911612e+01 2.509333333333333371e+02
4.116711665622139549e+01 2.505294117647058840e+02
4.153243602663183509e+01 2.553529411764705799e+02
4.190135268967101467e+01 2.422500000000000000e+02
4.225694403171050340e+01 2.618235294117646959e+02
4.263072221917273197e+01 2.516470588235294201e+02
4.298236812304300258e+01 2.556666666666666572e+02
4.335397244744854106e+01 2.526315789473684106e+02
4.370938581296284298e+01 2.485000000000000000e+02
4.408141282004845607e+01 2.676111111111110858e+02
4.442311195098108811e+01 2.431875000000000000e+02
4.474736345545046134e+01 2.547500000000000000e+02
4.513181037106932081e+01 2.600869565217391255e+02
4.550518791356464732e+01 2.467272727272727195e+02
4.587859612931388398e+01 2.512173913043478137e+02
4.626298575904075960e+01 2.540000000000000000e+02
4.659827357861271935e+01 2.408333333333333428e+02
4.695833007920350610e+01 2.635625000000000000e+02
4.732706300537589073e+01 2.373529411764705799e+02
4.768729047865042503e+01 2.585000000000000000e+02
4.804603123853006252e+01 2.473529411764705799e+02
4.839911688274412427e+01 2.461999999999999886e+02
4.876043263521199123e+01 2.487777777777777715e+02
4.912600027158417504e+01 2.408750000000000000e+02
4.948820129318639260e+01 2.460625000000000000e+02
4.985200348507563461e+01 2.395625000000000000e+02
5.021186646673336895e+01 2.468750000000000000e+02
5.056009585579234056e+01 2.409375000000000000e+02
5.092929928871412670e+01 2.383888888888888857e+02
5.129035769465544803e+01 2.371999999999999886e+02
5.164685043638609585e+01 2.419411764705882320e+02
5.201769573310133410e+01 2.317500000000000000e+02
5.238760095852538257e+01 2.384375000000000000e+02
5.273628981835555862e+01 2.478125000000000000e+02
5.309476049356305793e+01 2.392352941176470722e+02
5.345016124763998988e+01 2.335000000000000000e+02
5.381627393954912719e+01 2.454705882352941160e+02
5.418861012304124358e+01 2.366250000000000000e+02
5.455507675480509988e+01 2.415882352941176521e+02
5.490978944155331476e+01 2.428750000000000000e+02
5.527062247726589561e+01 2.469375000000000000e+02
5.563114682740363293e+01 2.397500000000000000e+02
5.601023261561899602e+01 2.475789473684210407e+02
5.636736094360470872e+01 2.410769230769230660e+02
5.670276624052125669e+01 2.417058823529411882e+02
5.708342660208528230e+01 2.354117647058823479e+02
5.743755150235368490e+01 2.523750000000000000e+02
5.781125925987439729e+01 2.421176470588235361e+02
5.818065824853643875e+01 2.416875000000000000e+02
5.852827955308822538e+01 2.449375000000000000e+02
5.888312669818119360e+01 2.505625000000000000e+02
5.924840814141190748e+01 2.433529411764705799e+02
5.961154974951115548e+01 2.451875000000000000e+02
5.996845703544695283e+01 2.405625000000000000e+02
6.032107613684184599e+01 2.403125000000000000e+02
6.067635033341284867e+01 2.429375000000000000e+02
6.103835741567128537e+01 2.341764705882353041e+02
6.140561065545576724e+01 2.498125000000000000e+02
6.177042045335986842e+01 2.360588235294117680e+02
6.213399215608534831e+01 2.341250000000000000e+02
6.248259002593690781e+01 2.400000000000000000e+02
6.284760485184366985e+01 2.447777777777777715e+02
6.324143716501277623e+01 2.360000000000000000e+02
6.359422694762883310e+01 2.401428571428571388e+02
6.391455316895247307e+01 2.405000000000000000e+02
6.427479584875267449e+01 2.341578947368421098e+02
6.466508569255833550e+01 2.466875000000000000e+02
6.502666580012007103e+01 2.444705882352941160e+02
6.539446369731982145e+01 2.356875000000000000e+02
6.574820320749168445e+01 2.321250000000000000e+02
6.610068040043485382e+01 2.406250000000000000e+02
6.645692095565500779e+01 2.373750000000000000e+02
6.681800687385491244e+01 2.370588235294117680e+02
6.719035107877287771e+01 2.438235294117646959e+02
6.755840506439764681e+01 2.385000000000000000e+02
6.790011856147869196e+01 2.449333333333333371e+02
6.826495417233978458e+01 2.381666666666666572e+02
6.864122356074808806e+01 2.392500000000000000e+02
6.899120487936832546e+01 2.396250000000000000e+02
6.934515837690105400e+01 2.356875000000000000e+02
6.970219057915214478e+01 2.355625000000000000e+02
7.006043201921525565e+01 2.365882352941176521e+02
7.042671108571890670e+01 2.293750000000000000e+02
7.078710034359642123e+01 2.359375000000000000e+02
7.115811437123892347e+01 2.422222222222222285e+02
7.153958093271063490e+01 2.333529411764705799e+02
7.190442186609608655e+01 2.401999999999999886e+02
7.224263994054126670e+01 2.436250000000000000e+02
7.260219134987632117e+01 2.274705882352941160e+02
7.297609154208090843e+01 2.378750000000000000e+02
7.332683994636451530e+01 2.317500000000000000e+02
7.367044320861349149e+01 2.277500000000000000e+02
7.404725045633394132e+01 2.357647058823529278e+02
7.441295239220515612e+01 2.405333333333333314e+02
7.476343416238385942e+01 2.387647058823529278e+02
7.513029354853142650e+01 2.314705882352941160e+02
7.551519662243860864e+01 2.305882352941176521e+02
7.587747040259006326e+01 2.346250000000000000e+02
7.622370848935524634e+01 2.387500000000000000e+02
7.658149045660854881e+01 2.341764705882353041e+02
7.695187606182420836e+01 2.360000000000000000e+02
7.730262882985928741e+01 2.312500000000000000e+02
7.767087407088446582e+01 2.385000000000000000e+02
7.804258364307008833e+01 2.466875000000000000e+02
7.840203383197295750e+01 2.361176470588235361e+02
7.876824823481187821e+01 2.366250000000000000e+02
7.911783678159913791e+01 2.350000000000000000e+02
7.947884115428381335e+01 2.397058823529411882e+02
7.982941921865229062e+01 2.346666666666666572e+02
8.016986655134641637e+01 2.366250000000000000e+02
8.052259744243993111e+01 2.461250000000000000e+02
8.090008256545793586e+01 2.352352941176470722e+02
8.126221084920342719e+01 2.342500000000000000e+02
8.162685701871724575e+01 2.360000000000000000e+02
8.200083637261658964e+01 2.364117647058823479e+02
8.236607722354534644e+01 2.411250000000000000e+02
8.273099511512749871e+01 2.337647058823529278e+02
8.309724864130512856e+01 2.409375000000000000e+02
8.345987425604631937e+01 2.345294117647058840e+02
8.382511681739602238e+01 2.420625000000000000e+02
8.418906478693283191e+01 2.314117647058823479e+02
8.455583955869450108e+01 2.377500000000000000e+02
8.491951971574090408e+01 2.445882352941176521e+02
8.527853749732436484e+01 2.404000000000000057e+02
8.562162058484382499e+01 2.382500000000000000e+02
8.597809203121383348e+01 2.381875000000000000e+02
8.633487585451712221e+01 2.406875000000000000e+02
8.669194469307866768e+01 2.383125000000000000e+02
8.704136346034113103e+01 2.414375000000000000e+02
8.738782040139935248e+01 2.339411764705882320e+02
8.773094542231270054e+01 2.433750000000000000e+02
8.806515251314741022e+01 2.346875000000000000e+02
8.840279388044622522e+01 2.410666666666666629e+02
8.875361409099390642e+01 2.398125000000000000e+02
8.910965539559541071e+01 2.493125000000000000e+02
8.946576564888061966e+01 2.467500000000000000e+02
8.982191728423745758e+01 2.490625000000000000e+02
9.017808271576254242e+01 2.504375000000000000e+02
9.055281017641182473e+01 2.508235294117646959e+02
9.094370714968017921e+01 2.467777777777777715e+02
9.133846013757234061e+01 2.556111111111111143e+02
9.172253577705761529e+01 2.524705882352941160e+02
9.209749924035037338e+01 2.588333333333333144e+02
9.246359859170013351e+01 2.773529411764706083e+02
9.273589281410198737e+01 3.233000000000000114e+02
